#== Filter Data - Lambda 9 Spectrophotometer ==
#  Kitt Peak National Observatory - NOAO
#------------------------------------------------
#Filter: GjNa 0.2NM/15NMPERMIN/0.5S 5500-6500A
#Date: 09/28/04 Time: 14:49:01 Operator: HS
#cwl= 5896.64A fwhm= 101.29A Tmax= 81.80% at 5880.00A
#Tcutoff= 2.00 % Slitsize = 2 A
#fwhm spans 5846.00A to 5947.28A
#90% spans 5853.14A to 5922.78A
#bw90 is 0.687; Tmin90/Tmax is 0.900
#No data smoothing
#
#Npts= 501 Disp= 2.00A/Interval
#*****
  5500.00 0.000
  5502.00 -0.005
  5504.00 0.000
  5506.00 -0.005
  5508.00 0.000
  5510.00 -0.010
  5512.00 -0.005
  5514.00 0.000
  5516.00 -0.005
  5518.00 0.000
  5520.00 -0.005
  5522.00 -0.005
  5524.00 -0.005
  5526.00 0.000
  5528.00 -0.005
  5530.00 -0.005
  5532.00 -0.005
  5534.00 0.005
  5536.00 0.000
  5538.00 0.000
  5540.00 -0.005
  5542.00 -0.005
  5544.00 -0.005
  5546.00 -0.005
  5548.00 -0.005
  5550.00 0.000
  5552.00 -0.005
  5554.00 0.000
  5556.00 -0.005
  5558.00 -0.005
  5560.00 0.000
  5562.00 0.000
  5564.00 -0.005
  5566.00 -0.005
  5568.00 -0.005
  5570.00 0.000
  5572.00 -0.005
  5574.00 0.000
  5576.00 -0.005
  5578.00 -0.005
  5580.00 -0.005
  5582.00 -0.005
  5584.00 -0.005
  5586.00 -0.005
  5588.00 -0.005
  5590.00 0.000
  5592.00 -0.005
  5594.00 0.000
  5596.00 -0.005
  5598.00 -0.005
  5600.00 -0.005
  5602.00 -0.005
  5604.00 -0.005
  5606.00 0.000
  5608.00 0.000
  5610.00 0.000
  5612.00 0.000
  5614.00 -0.005
  5616.00 -0.005
  5618.00 0.000
  5620.00 0.000
  5622.00 0.000
  5624.00 -0.005
  5626.00 0.000
  5628.00 -0.010
  5630.00 0.000
  5632.00 0.000
  5634.00 -0.005
  5636.00 0.000
  5638.00 0.000
  5640.00 -0.005
  5642.00 -0.005
  5644.00 0.000
  5646.00 -0.005
  5648.00 -0.005
  5650.00 -0.005
  5652.00 0.000
  5654.00 0.000
  5656.00 -0.005
  5658.00 0.000
  5660.00 -0.005
  5662.00 -0.005
  5664.00 0.000
  5666.00 0.000
  5668.00 0.000
  5670.00 0.000
  5672.00 0.000
  5674.00 0.000
  5676.00 0.000
  5678.00 0.000
  5680.00 0.000
  5682.00 0.000
  5684.00 0.005
  5686.00 0.000
  5688.00 0.000
  5690.00 0.000
  5692.00 0.000
  5694.00 0.005
  5696.00 0.005
  5698.00 0.010
  5700.00 0.000
  5702.00 0.005
  5704.00 0.005
  5706.00 0.005
  5708.00 0.005
  5710.00 0.005
  5712.00 0.005
  5714.00 0.010
  5716.00 0.010
  5718.00 0.010
  5720.00 0.010
  5722.00 0.010
  5724.00 0.010
  5726.00 0.010
  5728.00 0.010
  5730.00 0.015
  5732.00 0.020
  5734.00 0.015
  5736.00 0.010
  5738.00 0.020
  5740.00 0.020
  5742.00 0.020
  5744.00 0.025
  5746.00 0.025
  5748.00 0.030
  5750.00 0.035
  5752.00 0.035
  5754.00 0.045
  5756.00 0.045
  5758.00 0.055
  5760.00 0.060
  5762.00 0.070
  5764.00 0.075
  5766.00 0.095
  5768.00 0.100
  5770.00 0.115
  5772.00 0.125
  5774.00 0.150
  5776.00 0.155
  5778.00 0.185
  5780.00 0.205
  5782.00 0.235
  5784.00 0.280
  5786.00 0.315
  5788.00 0.340
  5790.00 0.365
  5792.00 0.435
  5794.00 0.485
  5796.00 0.540
  5798.00 0.580
  5800.00 0.625
  5802.00 0.715
  5804.00 0.765
  5806.00 0.860
  5808.00 0.925
  5810.00 1.075
  5812.00 1.225
  5814.00 1.405
  5816.00 1.575
  5818.00 1.850
  5820.00 2.145
  5822.00 2.580
  5824.00 3.040
  5826.00 3.635
  5828.00 4.410
  5830.00 5.440
  5832.00 6.815
  5834.00 8.575
  5836.00 10.895
  5838.00 14.310
  5840.00 18.505
  5842.00 24.535
  5844.00 31.880
  5846.00 40.920
  5848.00 50.910
  5850.00 61.190
  5852.00 69.995
  5854.00 76.325
  5856.00 79.980
  5858.00 81.320
  5860.00 81.010
  5862.00 80.635
  5864.00 80.000
  5866.00 79.210
  5868.00 78.475
  5870.00 78.555
  5872.00 79.470
  5874.00 80.055
  5876.00 80.155
  5878.00 81.005
  5880.00 81.795
  5882.00 81.530
  5884.00 81.105
  5886.00 81.165
  5888.00 80.965
  5890.00 79.975
  5892.00 79.955
  5894.00 79.030
  5896.00 79.015
  5898.00 78.615
  5900.00 78.805
  5902.00 79.075
  5904.00 79.600
  5906.00 79.620
  5908.00 79.835
  5910.00 79.920
  5912.00 79.145
  5914.00 78.690
  5916.00 77.435
  5918.00 76.705
  5920.00 75.040
  5922.00 73.940
  5924.00 73.105
  5926.00 71.810
  5928.00 71.510
  5930.00 71.020
  5932.00 70.800
  5934.00 71.240
  5936.00 71.235
  5938.00 69.995
  5940.00 67.315
  5942.00 62.435
  5944.00 55.195
  5946.00 46.615
  5948.00 37.705
  5950.00 29.475
  5952.00 22.490
  5954.00 16.960
  5956.00 13.040
  5958.00 9.925
  5960.00 7.550
  5962.00 5.995
  5964.00 4.745
  5966.00 3.755
  5968.00 3.040
  5970.00 2.435
  5972.00 2.040
  5974.00 1.670
  5976.00 1.385
  5978.00 1.210
  5980.00 1.015
  5982.00 0.885
  5984.00 0.790
  5986.00 0.680
  5988.00 0.605
  5990.00 0.530
  5992.00 0.475
  5994.00 0.415
  5996.00 0.405
  5998.00 0.370
  6000.00 0.335
  6002.00 0.335
  6004.00 0.285
  6006.00 0.295
  6008.00 0.260
  6010.00 0.245
  6012.00 0.225
  6014.00 0.220
  6016.00 0.210
  6018.00 0.210
  6020.00 0.185
  6022.00 0.180
  6024.00 0.175
  6026.00 0.155
  6028.00 0.160
  6030.00 0.145
  6032.00 0.125
  6034.00 0.130
  6036.00 0.120
  6038.00 0.105
  6040.00 0.100
  6042.00 0.085
  6044.00 0.080
  6046.00 0.065
  6048.00 0.070
  6050.00 0.060
  6052.00 0.050
  6054.00 0.045
  6056.00 0.045
  6058.00 0.035
  6060.00 0.030
  6062.00 0.030
  6064.00 0.025
  6066.00 0.020
  6068.00 0.020
  6070.00 0.020
  6072.00 0.020
  6074.00 0.015
  6076.00 0.010
  6078.00 0.010
  6080.00 0.010
  6082.00 0.010
  6084.00 0.010
  6086.00 0.005
  6088.00 0.005
  6090.00 0.005
  6092.00 0.005
  6094.00 0.005
  6096.00 0.005
  6098.00 0.000
  6100.00 0.005
  6102.00 0.000
  6104.00 0.000
  6106.00 0.000
  6108.00 0.000
  6110.00 0.000
  6112.00 0.000
  6114.00 0.000
  6116.00 0.000
  6118.00 0.000
  6120.00 0.000
  6122.00 0.000
  6124.00 0.000
  6126.00 0.000
  6128.00 0.000
  6130.00 0.000
  6132.00 0.000
  6134.00 0.000
  6136.00 0.000
  6138.00 0.000
  6140.00 0.000
  6142.00 0.000
  6144.00 0.000
  6146.00 0.005
  6148.00 0.000
  6150.00 0.000
  6152.00 0.000
  6154.00 -0.005
  6156.00 0.000
  6158.00 0.000
  6160.00 0.000
  6162.00 0.000
  6164.00 0.000
  6166.00 0.000
  6168.00 0.000
  6170.00 0.000
  6172.00 0.000
  6174.00 -0.005
  6176.00 0.000
  6178.00 0.000
  6180.00 0.000
  6182.00 0.000
  6184.00 0.000
  6186.00 0.000
  6188.00 0.000
  6190.00 -0.005
  6192.00 0.000
  6194.00 -0.005
  6196.00 0.000
  6198.00 0.000
  6200.00 0.000
  6202.00 0.000
  6204.00 0.000
  6206.00 -0.005
  6208.00 0.000
  6210.00 0.000
  6212.00 0.000
  6214.00 -0.005
  6216.00 -0.005
  6218.00 0.000
  6220.00 0.000
  6222.00 0.000
  6224.00 -0.005
  6226.00 -0.005
  6228.00 0.000
  6230.00 0.000
  6232.00 0.000
  6234.00 0.000
  6236.00 -0.005
  6238.00 0.000
  6240.00 -0.005
  6242.00 -0.005
  6244.00 -0.005
  6246.00 -0.005
  6248.00 -0.005
  6250.00 0.000
  6252.00 -0.005
  6254.00 -0.005
  6256.00 -0.005
  6258.00 -0.005
  6260.00 -0.005
  6262.00 -0.005
  6264.00 0.000
  6266.00 -0.005
  6268.00 0.000
  6270.00 -0.005
  6272.00 -0.005
  6274.00 -0.005
  6276.00 -0.005
  6278.00 -0.005
  6280.00 -0.005
  6282.00 -0.005
  6284.00 -0.005
  6286.00 -0.005
  6288.00 -0.005
  6290.00 -0.005
  6292.00 -0.005
  6294.00 -0.005
  6296.00 0.000
  6298.00 0.000
  6300.00 0.000
  6302.00 -0.005
  6304.00 0.000
  6306.00 0.000
  6308.00 -0.005
  6310.00 -0.005
  6312.00 -0.005
  6314.00 -0.005
  6316.00 0.000
  6318.00 -0.005
  6320.00 0.000
  6322.00 0.000
  6324.00 -0.005
  6326.00 -0.005
  6328.00 0.000
  6330.00 -0.005
  6332.00 -0.005
  6334.00 -0.005
  6336.00 -0.005
  6338.00 0.000
  6340.00 -0.005
  6342.00 -0.005
  6344.00 0.000
  6346.00 -0.005
  6348.00 0.000
  6350.00 -0.005
  6352.00 -0.005
  6354.00 0.000
  6356.00 0.000
  6358.00 -0.005
  6360.00 -0.005
  6362.00 -0.005
  6364.00 -0.005
  6366.00 -0.005
  6368.00 -0.005
  6370.00 0.000
  6372.00 0.000
  6374.00 -0.005
  6376.00 -0.005
  6378.00 -0.005
  6380.00 -0.005
  6382.00 -0.005
  6384.00 -0.005
  6386.00 0.000
  6388.00 -0.005
  6390.00 0.000
  6392.00 0.000
  6394.00 0.000
  6396.00 -0.005
  6398.00 -0.005
  6400.00 0.000
  6402.00 -0.005
  6404.00 -0.005
  6406.00 -0.005
  6408.00 -0.005
  6410.00 -0.005
  6412.00 -0.005
  6414.00 0.000
  6416.00 -0.005
  6418.00 0.000
  6420.00 0.000
  6422.00 -0.005
  6424.00 0.000
  6426.00 0.000
  6428.00 0.000
  6430.00 -0.005
  6432.00 0.000
  6434.00 -0.005
  6436.00 -0.005
  6438.00 -0.005
  6440.00 0.000
  6442.00 0.000
  6444.00 -0.005
  6446.00 -0.005
  6448.00 -0.005
  6450.00 -0.005
  6452.00 -0.005
  6454.00 0.000
  6456.00 -0.005
  6458.00 -0.005
  6460.00 -0.005
  6462.00 0.000
  6464.00 0.000
  6466.00 -0.005
  6468.00 0.000
  6470.00 -0.005
  6472.00 0.000
  6474.00 -0.005
  6476.00 -0.005
  6478.00 -0.005
  6480.00 -0.005
  6482.00 -0.005
  6484.00 0.000
  6486.00 0.000
  6488.00 -0.005
  6490.00 -0.005
  6492.00 0.000
  6494.00 -0.005
  6496.00 -0.005
  6498.00 0.000
  6500.00 0.000
