#== Filter Data - Lambda 9 Spectrophotometer ==
#  Kitt Peak National Observatory - NOAO
#------------------------------------------------
#Filter: 0.1NM/7.5NMPERMIN/2S  500-560NM
#Date: 11/11/03   Time: 11:18:54  Operator: HS
#cwl=  5288.39A  fwhm= 230.21A  Tmax= 88.80% at  5281.00A
#Tcutoff=  2.00 %  Slitsize =  1 A
#fwhm spans 5173.29A to 5403.50A
#90%  spans 5245.00A to 5379.82A
#bw90 is  0.586; Tmin90/Tmax is  0.900
#No data smoothing
#
#Npts=  601	Disp=  1.00A/Interval
#*****
  5000.00     0.135
  5001.00     0.100
  5002.00     0.005
  5003.00     0.115
  5004.00     0.120
  5005.00     0.080
  5006.00     0.105
  5007.00     0.140
  5008.00     0.105
  5009.00     0.130
  5010.00     0.170
  5011.00     0.120
  5012.00     0.115
  5013.00     0.135
  5014.00     0.125
  5015.00     0.100
  5016.00     0.075
  5017.00     0.075
  5018.00     0.050
  5019.00     0.130
  5020.00     0.125
  5021.00     0.125
  5022.00     0.135
  5023.00     0.105
  5024.00     0.145
  5025.00     0.140
  5026.00     0.115
  5027.00     0.145
  5028.00     0.135
  5029.00     0.140
  5030.00     0.125
  5031.00     0.130
  5032.00     0.120
  5033.00     0.150
  5034.00     0.170
  5035.00     0.150
  5036.00     0.175
  5037.00     0.155
  5038.00     0.185
  5039.00     0.175
  5040.00     0.195
  5041.00     0.155
  5042.00     0.180
  5043.00     0.220
  5044.00     0.250
  5045.00     0.245
  5046.00     0.260
  5047.00     0.265
  5048.00     0.250
  5049.00     0.235
  5050.00     0.295
  5051.00     0.320
  5052.00     0.250
  5053.00     0.275
  5054.00     0.285
  5055.00     0.300
  5056.00     0.265
  5057.00     0.285
  5058.00     0.370
  5059.00     0.410
  5060.00     0.325
  5061.00     0.340
  5062.00     0.425
  5063.00     0.425
  5064.00     0.455
  5065.00     0.490
  5066.00     0.440
  5067.00     0.470
  5068.00     0.525
  5069.00     0.540
  5070.00     0.585
  5071.00     0.600
  5072.00     0.625
  5073.00     0.610
  5074.00     0.660
  5075.00     0.720
  5076.00     0.780
  5077.00     0.770
  5078.00     0.805
  5079.00     0.845
  5080.00     0.920
  5081.00     0.935
  5082.00     0.980
  5083.00     0.995
  5084.00     1.040
  5085.00     1.120
  5086.00     1.170
  5087.00     1.205
  5088.00     1.270
  5089.00     1.335
  5090.00     1.345
  5091.00     1.430
  5092.00     1.500
  5093.00     1.540
  5094.00     1.585
  5095.00     1.655
  5096.00     1.765
  5097.00     1.845
  5098.00     1.855
  5099.00     1.975
  5100.00     2.045
  5101.00     2.150
  5102.00     2.265
  5103.00     2.340
  5104.00     2.390
  5105.00     2.490
  5106.00     2.575
  5107.00     2.700
  5108.00     2.820
  5109.00     2.865
  5110.00     2.880
  5111.00     3.050
  5112.00     3.170
  5113.00     3.290
  5114.00     3.470
  5115.00     3.565
  5116.00     3.765
  5117.00     3.855
  5118.00     3.950
  5119.00     4.105
  5120.00     4.260
  5121.00     4.430
  5122.00     4.620
  5123.00     4.740
  5124.00     4.835
  5125.00     5.015
  5126.00     5.225
  5127.00     5.405
  5128.00     5.605
  5129.00     5.815
  5130.00     6.030
  5131.00     6.255
  5132.00     6.515
  5133.00     6.700
  5134.00     6.995
  5135.00     7.275
  5136.00     7.520
  5137.00     7.810
  5138.00     8.200
  5139.00     8.535
  5140.00     8.885
  5141.00     9.315
  5142.00     9.685
  5143.00    10.030
  5144.00    10.530
  5145.00    11.030
  5146.00    11.595
  5147.00    12.095
  5148.00    12.625
  5149.00    13.325
  5150.00    13.835
  5151.00    14.535
  5152.00    15.310
  5153.00    16.040
  5154.00    16.750
  5155.00    17.760
  5156.00    18.670
  5157.00    19.390
  5158.00    20.570
  5159.00    21.735
  5160.00    22.685
  5161.00    23.970
  5162.00    25.115
  5163.00    26.515
  5164.00    27.950
  5165.00    29.345
  5166.00    31.040
  5167.00    32.810
  5168.00    34.665
  5169.00    36.255
  5170.00    37.965
  5171.00    39.925
  5172.00    41.870
  5173.00    43.890
  5174.00    45.670
  5175.00    47.905
  5176.00    50.105
  5177.00    52.270
  5178.00    54.075
  5179.00    56.225
  5180.00    58.360
  5181.00    60.450
  5182.00    62.660
  5183.00    64.005
  5184.00    65.680
  5185.00    67.295
  5186.00    68.685
  5187.00    70.440
  5188.00    71.800
  5189.00    72.765
  5190.00    73.890
  5191.00    74.595
  5192.00    75.370
  5193.00    76.075
  5194.00    76.865
  5195.00    77.595
  5196.00    77.860
  5197.00    77.830
  5198.00    77.970
  5199.00    77.560
  5200.00    77.515
  5201.00    77.750
  5202.00    77.740
  5203.00    77.385
  5204.00    77.460
  5205.00    77.415
  5206.00    77.095
  5207.00    76.755
  5208.00    76.250
  5209.00    76.000
  5210.00    75.980
  5211.00    75.975
  5212.00    75.480
  5213.00    75.450
  5214.00    74.980
  5215.00    74.985
  5216.00    74.865
  5217.00    74.755
  5218.00    74.045
  5219.00    74.385
  5220.00    74.480
  5221.00    74.370
  5222.00    74.265
  5223.00    74.315
  5224.00    74.660
  5225.00    74.485
  5226.00    74.630
  5227.00    74.325
  5228.00    74.410
  5229.00    74.815
  5230.00    75.085
  5231.00    75.210
  5232.00    75.315
  5233.00    75.755
  5234.00    76.065
  5235.00    76.400
  5236.00    76.390
  5237.00    76.695
  5238.00    77.180
  5239.00    77.300
  5240.00    77.785
  5241.00    78.180
  5242.00    78.615
  5243.00    79.115
  5244.00    79.220
  5245.00    79.920
  5246.00    80.330
  5247.00    81.200
  5248.00    81.360
  5249.00    81.995
  5250.00    81.680
  5251.00    82.405
  5252.00    82.625
  5253.00    82.745
  5254.00    83.275
  5255.00    83.960
  5256.00    83.870
  5257.00    83.880
  5258.00    84.185
  5259.00    85.080
  5260.00    85.330
  5261.00    85.190
  5262.00    85.975
  5263.00    86.135
  5264.00    86.220
  5265.00    86.665
  5266.00    86.905
  5267.00    86.765
  5268.00    87.180
  5269.00    87.750
  5270.00    87.490
  5271.00    87.340
  5272.00    87.670
  5273.00    87.515
  5274.00    88.040
  5275.00    87.840
  5276.00    87.710
  5277.00    88.170
  5278.00    88.520
  5279.00    88.210
  5280.00    87.965
  5281.00    88.800
  5282.00    88.355
  5283.00    88.250
  5284.00    88.185
  5285.00    88.335
  5286.00    88.785
  5287.00    88.080
  5288.00    87.800
  5289.00    88.135
  5290.00    88.200
  5291.00    88.530
  5292.00    88.200
  5293.00    87.915
  5294.00    88.405
  5295.00    88.000
  5296.00    87.415
  5297.00    87.750
  5298.00    87.800
  5299.00    87.480
  5300.00    87.840
  5301.00    87.575
  5302.00    87.730
  5303.00    87.885
  5304.00    87.755
  5305.00    87.720
  5306.00    87.580
  5307.00    87.810
  5308.00    87.745
  5309.00    87.640
  5310.00    87.345
  5311.00    87.505
  5312.00    87.400
  5313.00    87.920
  5314.00    87.110
  5315.00    87.195
  5316.00    87.210
  5317.00    87.340
  5318.00    87.235
  5319.00    87.065
  5320.00    87.075
  5321.00    87.395
  5322.00    87.660
  5323.00    87.035
  5324.00    87.020
  5325.00    87.125
  5326.00    87.095
  5327.00    86.930
  5328.00    87.120
  5329.00    86.575
  5330.00    86.865
  5331.00    87.385
  5332.00    87.535
  5333.00    87.030
  5334.00    87.155
  5335.00    87.225
  5336.00    86.955
  5337.00    86.650
  5338.00    86.765
  5339.00    87.135
  5340.00    87.020
  5341.00    87.085
  5342.00    86.985
  5343.00    86.530
  5344.00    87.130
  5345.00    86.860
  5346.00    86.780
  5347.00    86.655
  5348.00    86.420
  5349.00    86.915
  5350.00    86.575
  5351.00    86.765
  5352.00    86.285
  5353.00    86.180
  5354.00    86.005
  5355.00    86.150
  5356.00    86.025
  5357.00    85.615
  5358.00    86.030
  5359.00    86.090
  5360.00    86.020
  5361.00    85.455
  5362.00    85.530
  5363.00    85.615
  5364.00    85.685
  5365.00    85.385
  5366.00    85.570
  5367.00    85.385
  5368.00    84.875
  5369.00    84.595
  5370.00    83.980
  5371.00    83.695
  5372.00    83.565
  5373.00    83.110
  5374.00    83.140
  5375.00    82.725
  5376.00    82.645
  5377.00    81.975
  5378.00    81.340
  5379.00    80.815
  5380.00    79.720
  5381.00    78.920
  5382.00    77.910
  5383.00    76.590
  5384.00    75.975
  5385.00    75.285
  5386.00    74.270
  5387.00    72.365
  5388.00    71.175
  5389.00    70.010
  5390.00    68.565
  5391.00    66.525
  5392.00    64.930
  5393.00    63.020
  5394.00    61.475
  5395.00    60.075
  5396.00    58.150
  5397.00    56.520
  5398.00    54.875
  5399.00    52.670
  5400.00    50.750
  5401.00    49.185
  5402.00    47.080
  5403.00    45.300
  5404.00    43.495
  5405.00    41.695
  5406.00    39.990
  5407.00    37.935
  5408.00    36.175
  5409.00    34.750
  5410.00    33.080
  5411.00    31.305
  5412.00    29.920
  5413.00    28.460
  5414.00    27.085
  5415.00    25.940
  5416.00    24.735
  5417.00    23.480
  5418.00    22.450
  5419.00    21.230
  5420.00    20.035
  5421.00    19.055
  5422.00    18.260
  5423.00    17.440
  5424.00    16.515
  5425.00    15.655
  5426.00    14.770
  5427.00    14.155
  5428.00    13.285
  5429.00    12.790
  5430.00    12.035
  5431.00    11.505
  5432.00    10.990
  5433.00    10.555
  5434.00    10.100
  5435.00     9.480
  5436.00     9.065
  5437.00     8.495
  5438.00     8.145
  5439.00     7.915
  5440.00     7.585
  5441.00     7.175
  5442.00     6.860
  5443.00     6.665
  5444.00     6.320
  5445.00     6.080
  5446.00     5.770
  5447.00     5.620
  5448.00     5.345
  5449.00     5.075
  5450.00     4.810
  5451.00     4.745
  5452.00     4.600
  5453.00     4.245
  5454.00     4.180
  5455.00     3.955
  5456.00     3.910
  5457.00     3.785
  5458.00     3.630
  5459.00     3.515
  5460.00     3.410
  5461.00     3.320
  5462.00     3.290
  5463.00     3.060
  5464.00     2.940
  5465.00     2.940
  5466.00     2.735
  5467.00     2.785
  5468.00     2.710
  5469.00     2.585
  5470.00     2.490
  5471.00     2.355
  5472.00     2.305
  5473.00     2.215
  5474.00     2.170
  5475.00     2.125
  5476.00     2.045
  5477.00     1.870
  5478.00     1.920
  5479.00     1.985
  5480.00     1.840
  5481.00     1.820
  5482.00     1.790
  5483.00     1.795
  5484.00     1.765
  5485.00     1.720
  5486.00     1.740
  5487.00     1.600
  5488.00     1.565
  5489.00     1.740
  5490.00     1.630
  5491.00     1.530
  5492.00     1.395
  5493.00     1.430
  5494.00     1.420
  5495.00     1.410
  5496.00     1.350
  5497.00     1.325
  5498.00     1.320
  5499.00     1.205
  5500.00     1.325
  5501.00     1.425
  5502.00     1.325
  5503.00     1.355
  5504.00     1.260
  5505.00     1.275
  5506.00     1.315
  5507.00     1.105
  5508.00     1.145
  5509.00     1.200
  5510.00     1.210
  5511.00     1.120
  5512.00     1.095
  5513.00     1.075
  5514.00     1.175
  5515.00     1.205
  5516.00     1.140
  5517.00     1.075
  5518.00     1.000
  5519.00     1.060
  5520.00     1.250
  5521.00     1.145
  5522.00     1.100
  5523.00     1.080
  5524.00     1.070
  5525.00     1.110
  5526.00     1.080
  5527.00     1.020
  5528.00     1.055
  5529.00     1.095
  5530.00     1.170
  5531.00     1.075
  5532.00     1.035
  5533.00     1.020
  5534.00     0.960
  5535.00     0.900
  5536.00     1.030
  5537.00     0.910
  5538.00     0.940
  5539.00     0.995
  5540.00     0.900
  5541.00     0.935
  5542.00     0.885
  5543.00     0.835
  5544.00     0.865
  5545.00     0.900
  5546.00     0.845
  5547.00     0.975
  5548.00     1.040
  5549.00     0.870
  5550.00     0.885
  5551.00     0.840
  5552.00     0.900
  5553.00     0.970
  5554.00     0.840
  5555.00     0.670
  5556.00     0.725
  5557.00     0.840
  5558.00     0.830
  5559.00     0.815
  5560.00     0.700
  5561.00     0.675
  5562.00     0.630
  5563.00     0.700
  5564.00     0.500
  5565.00     0.710
  5566.00     0.580
  5567.00     0.595
  5568.00     0.620
  5569.00     0.640
  5570.00     0.530
  5571.00     0.470
  5572.00     0.420
  5573.00     0.490
  5574.00     0.385
  5575.00     0.510
  5576.00     0.440
  5577.00     0.445
  5578.00     0.440
  5579.00     0.455
  5580.00     0.390
  5581.00     0.425
  5582.00     0.395
  5583.00     0.260
  5584.00     0.320
  5585.00     0.330
  5586.00     0.360
  5587.00     0.280
  5588.00     0.270
  5589.00     0.345
  5590.00     0.250
  5591.00     0.190
  5592.00     0.260
  5593.00     0.165
  5594.00     0.185
  5595.00     0.175
  5596.00     0.165
  5597.00     0.180
  5598.00     0.180
  5599.00     0.105
  5600.00     0.155

