#== Filter Data - Lambda 9 Spectrophotometer ==
#  Kitt Peak National Observatory - NOAO
#------------------------------------------------
#Filter: WIYN NEWU#1 0.2NM/15NMPERMIN/1S  300-460NM
#Date: 02/17/04   Time: 16:29:40  Operator: HS
#cwl=  3639.83A  fwhm= 572.09A  Tmax= 61.99% at  3698.00A
#Tcutoff=  2.00 %  Slitsize =  2 A
#fwhm spans 3353.79A to 3925.88A
#90%  spans 3559.02A to 3806.13A
#bw90 is  0.432; Tmin90/Tmax is  0.900
#No data smoothing
#
#Npts=  801	Disp=  2.00A/Interval
#*****
  3000.00     0.000
  3002.00     0.005
  3004.00     0.005
  3006.00     0.005
  3008.00     0.000
  3010.00    -0.005
  3012.00     0.005
  3014.00     0.000
  3016.00     0.005
  3018.00     0.005
  3020.00     0.005
  3022.00     0.000
  3024.00     0.000
  3026.00     0.000
  3028.00     0.000
  3030.00     0.000
  3032.00     0.000
  3034.00     0.000
  3036.00     0.000
  3038.00     0.005
  3040.00    -0.005
  3042.00     0.005
  3044.00     0.005
  3046.00     0.010
  3048.00     0.000
  3050.00     0.000
  3052.00     0.000
  3054.00     0.005
  3056.00     0.005
  3058.00     0.010
  3060.00     0.010
  3062.00     0.015
  3064.00     0.020
  3066.00     0.020
  3068.00     0.020
  3070.00     0.030
  3072.00     0.030
  3074.00     0.030
  3076.00     0.040
  3078.00     0.040
  3080.00     0.055
  3082.00     0.055
  3084.00     0.070
  3086.00     0.085
  3088.00     0.085
  3090.00     0.100
  3092.00     0.110
  3094.00     0.125
  3096.00     0.135
  3098.00     0.170
  3100.00     0.185
  3102.00     0.200
  3104.00     0.220
  3106.00     0.245
  3108.00     0.270
  3110.00     0.310
  3112.00     0.330
  3114.00     0.360
  3116.00     0.405
  3118.00     0.435
  3120.00     0.470
  3122.00     0.505
  3124.00     0.555
  3126.00     0.615
  3128.00     0.660
  3130.00     0.715
  3132.00     0.785
  3134.00     0.850
  3136.00     0.920
  3138.00     0.990
  3140.00     1.060
  3142.00     1.160
  3144.00     1.220
  3146.00     1.285
  3148.00     1.365
  3150.00     1.535
  3152.00     1.630
  3154.00     1.725
  3156.00     1.835
  3158.00     1.925
  3160.00     2.050
  3162.00     2.160
  3164.00     2.330
  3166.00     2.425
  3168.00     2.590
  3170.00     2.765
  3172.00     2.920
  3174.00     3.065
  3176.00     3.230
  3178.00     3.380
  3180.00     3.540
  3182.00     3.720
  3184.00     3.945
  3186.00     4.080
  3188.00     4.320
  3190.00     4.515
  3192.00     4.720
  3194.00     4.895
  3196.00     5.055
  3198.00     5.380
  3200.00     5.560
  3202.00     5.790
  3204.00     6.050
  3206.00     6.290
  3208.00     6.475
  3210.00     6.830
  3212.00     6.990
  3214.00     7.345
  3216.00     7.510
  3218.00     7.815
  3220.00     8.090
  3222.00     8.405
  3224.00     8.575
  3226.00     8.885
  3228.00     9.170
  3230.00     9.430
  3232.00     9.770
  3234.00    10.155
  3236.00    10.340
  3238.00    10.720
  3240.00    10.950
  3242.00    11.230
  3244.00    11.640
  3246.00    11.990
  3248.00    12.340
  3250.00    12.525
  3252.00    12.990
  3254.00    13.265
  3256.00    13.630
  3258.00    13.995
  3260.00    14.365
  3262.00    14.610
  3264.00    14.895
  3266.00    15.360
  3268.00    15.765
  3270.00    15.960
  3272.00    16.360
  3274.00    16.840
  3276.00    17.130
  3278.00    17.560
  3280.00    17.850
  3282.00    18.250
  3284.00    18.605
  3286.00    18.960
  3288.00    19.230
  3290.00    19.700
  3292.00    20.160
  3294.00    20.485
  3296.00    20.700
  3298.00    21.265
  3300.00    21.345
  3302.00    21.765
  3304.00    22.340
  3306.00    22.585
  3308.00    22.880
  3310.00    23.260
  3312.00    23.780
  3314.00    24.100
  3316.00    24.570
  3318.00    24.780
  3320.00    25.075
  3322.00    25.515
  3324.00    25.885
  3326.00    26.145
  3328.00    26.510
  3330.00    26.815
  3332.00    27.295
  3334.00    27.655
  3336.00    27.875
  3338.00    28.285
  3340.00    28.695
  3342.00    28.935
  3344.00    29.470
  3346.00    29.715
  3348.00    30.235
  3350.00    30.455
  3352.00    30.935
  3354.00    31.005
  3356.00    31.470
  3358.00    31.685
  3360.00    32.120
  3362.00    32.505
  3364.00    32.560
  3366.00    32.710
  3368.00    33.385
  3370.00    33.655
  3372.00    33.760
  3374.00    34.575
  3376.00    34.630
  3378.00    34.905
  3380.00    35.215
  3382.00    35.610
  3384.00    35.605
  3386.00    36.095
  3388.00    36.390
  3390.00    36.705
  3392.00    37.075
  3394.00    37.290
  3396.00    37.605
  3398.00    37.915
  3400.00    38.135
  3402.00    38.485
  3404.00    38.740
  3406.00    39.000
  3408.00    39.445
  3410.00    39.580
  3412.00    39.925
  3414.00    40.215
  3416.00    40.580
  3418.00    40.890
  3420.00    41.075
  3422.00    41.280
  3424.00    41.775
  3426.00    41.680
  3428.00    42.060
  3430.00    42.205
  3432.00    42.515
  3434.00    42.815
  3436.00    43.195
  3438.00    43.245
  3440.00    43.580
  3442.00    44.040
  3444.00    44.330
  3446.00    44.215
  3448.00    44.530
  3450.00    44.970
  3452.00    45.040
  3454.00    45.410
  3456.00    45.365
  3458.00    45.835
  3460.00    46.070
  3462.00    46.265
  3464.00    46.365
  3466.00    46.560
  3468.00    46.620
  3470.00    47.045
  3472.00    47.235
  3474.00    47.485
  3476.00    47.735
  3478.00    48.180
  3480.00    48.145
  3482.00    48.315
  3484.00    48.685
  3486.00    48.880
  3488.00    49.360
  3490.00    49.435
  3492.00    49.530
  3494.00    49.545
  3496.00    50.020
  3498.00    50.005
  3500.00    50.735
  3502.00    50.605
  3504.00    50.875
  3506.00    50.960
  3508.00    50.980
  3510.00    51.430
  3512.00    51.735
  3514.00    51.690
  3516.00    52.050
  3518.00    52.415
  3520.00    52.550
  3522.00    52.520
  3524.00    52.655
  3526.00    53.280
  3528.00    53.175
  3530.00    53.255
  3532.00    53.665
  3534.00    53.980
  3536.00    54.285
  3538.00    54.330
  3540.00    54.470
  3542.00    54.465
  3544.00    54.405
  3546.00    54.605
  3548.00    54.785
  3550.00    55.155
  3552.00    55.355
  3554.00    55.515
  3556.00    55.610
  3558.00    55.420
  3560.00    56.155
  3562.00    56.415
  3564.00    56.110
  3566.00    56.465
  3568.00    56.435
  3570.00    56.515
  3572.00    56.740
  3574.00    56.970
  3576.00    57.120
  3578.00    57.175
  3580.00    57.570
  3582.00    57.380
  3584.00    57.575
  3586.00    57.710
  3588.00    58.040
  3590.00    58.125
  3592.00    58.105
  3594.00    58.240
  3596.00    58.340
  3598.00    58.630
  3600.00    58.645
  3602.00    59.105
  3604.00    59.205
  3606.00    59.030
  3608.00    59.045
  3610.00    59.550
  3612.00    59.435
  3614.00    59.595
  3616.00    59.615
  3618.00    59.505
  3620.00    59.595
  3622.00    59.875
  3624.00    59.755
  3626.00    60.050
  3628.00    60.240
  3630.00    60.095
  3632.00    60.425
  3634.00    60.150
  3636.00    60.205
  3638.00    60.570
  3640.00    60.580
  3642.00    60.530
  3644.00    60.905
  3646.00    60.685
  3648.00    60.700
  3650.00    61.035
  3652.00    61.115
  3654.00    60.960
  3656.00    61.135
  3658.00    60.945
  3660.00    61.305
  3662.00    61.140
  3664.00    60.960
  3666.00    61.715
  3668.00    61.170
  3670.00    61.165
  3672.00    61.395
  3674.00    61.495
  3676.00    61.460
  3678.00    61.745
  3680.00    61.705
  3682.00    61.705
  3684.00    61.885
  3686.00    61.315
  3688.00    61.515
  3690.00    61.820
  3692.00    61.275
  3694.00    61.665
  3696.00    61.860
  3698.00    61.995
  3700.00    61.805
  3702.00    61.695
  3704.00    61.690
  3706.00    61.730
  3708.00    61.865
  3710.00    61.565
  3712.00    61.550
  3714.00    61.445
  3716.00    61.250
  3718.00    61.655
  3720.00    61.460
  3722.00    61.405
  3724.00    60.980
  3726.00    61.225
  3728.00    61.515
  3730.00    61.315
  3732.00    61.225
  3734.00    61.520
  3736.00    60.935
  3738.00    60.880
  3740.00    61.170
  3742.00    61.000
  3744.00    60.995
  3746.00    60.365
  3748.00    60.335
  3750.00    60.520
  3752.00    60.645
  3754.00    60.560
  3756.00    59.790
  3758.00    60.240
  3760.00    59.760
  3762.00    59.670
  3764.00    59.500
  3766.00    59.510
  3768.00    59.945
  3770.00    59.165
  3772.00    59.380
  3774.00    59.340
  3776.00    58.970
  3778.00    58.460
  3780.00    58.635
  3782.00    58.150
  3784.00    58.450
  3786.00    57.790
  3788.00    57.660
  3790.00    58.620
  3792.00    57.140
  3794.00    57.530
  3796.00    57.025
  3798.00    57.090
  3800.00    56.650
  3802.00    56.275
  3804.00    56.115
  3806.00    55.805
  3808.00    55.655
  3810.00    55.370
  3812.00    55.450
  3814.00    54.960
  3816.00    54.730
  3818.00    54.415
  3820.00    54.060
  3822.00    53.945
  3824.00    53.655
  3826.00    53.210
  3828.00    52.950
  3830.00    52.595
  3832.00    52.150
  3834.00    51.990
  3836.00    51.750
  3838.00    51.110
  3840.00    50.975
  3842.00    50.685
  3844.00    50.115
  3846.00    50.055
  3848.00    49.390
  3850.00    49.100
  3852.00    48.775
  3854.00    48.365
  3856.00    47.940
  3858.00    47.560
  3860.00    47.290
  3862.00    46.610
  3864.00    46.460
  3866.00    46.115
  3868.00    45.665
  3870.00    45.395
  3872.00    44.735
  3874.00    44.415
  3876.00    43.880
  3878.00    43.420
  3880.00    42.670
  3882.00    42.365
  3884.00    42.040
  3886.00    41.365
  3888.00    40.785
  3890.00    40.365
  3892.00    40.065
  3894.00    39.560
  3896.00    38.850
  3898.00    38.105
  3900.00    37.930
  3902.00    37.430
  3904.00    36.985
  3906.00    36.430
  3908.00    35.675
  3910.00    35.250
  3912.00    34.675
  3914.00    34.310
  3916.00    33.620
  3918.00    33.170
  3920.00    32.595
  3922.00    32.035
  3924.00    31.580
  3926.00    30.960
  3928.00    30.385
  3930.00    29.845
  3932.00    29.355
  3934.00    28.850
  3936.00    28.345
  3938.00    27.695
  3940.00    27.365
  3942.00    26.685
  3944.00    26.325
  3946.00    25.665
  3948.00    25.055
  3950.00    24.675
  3952.00    24.105
  3954.00    23.585
  3956.00    23.245
  3958.00    22.590
  3960.00    22.130
  3962.00    21.570
  3964.00    21.060
  3966.00    20.560
  3968.00    20.165
  3970.00    19.630
  3972.00    19.160
  3974.00    18.640
  3976.00    18.020
  3978.00    17.665
  3980.00    17.245
  3982.00    16.640
  3984.00    16.245
  3986.00    15.785
  3988.00    15.440
  3990.00    15.010
  3992.00    14.450
  3994.00    14.055
  3996.00    13.640
  3998.00    13.320
  4000.00    12.850
  4002.00    12.465
  4004.00    12.080
  4006.00    11.775
  4008.00    11.345
  4010.00    10.955
  4012.00    10.650
  4014.00    10.265
  4016.00    10.000
  4018.00     9.540
  4020.00     9.285
  4022.00     8.910
  4024.00     8.695
  4026.00     8.250
  4028.00     8.010
  4030.00     7.805
  4032.00     7.455
  4034.00     7.260
  4036.00     6.955
  4038.00     6.670
  4040.00     6.400
  4042.00     6.190
  4044.00     5.955
  4046.00     5.710
  4048.00     5.485
  4050.00     5.245
  4052.00     5.055
  4054.00     4.865
  4056.00     4.665
  4058.00     4.485
  4060.00     4.280
  4062.00     4.080
  4064.00     3.920
  4066.00     3.740
  4068.00     3.595
  4070.00     3.455
  4072.00     3.280
  4074.00     3.150
  4076.00     2.980
  4078.00     2.870
  4080.00     2.740
  4082.00     2.610
  4084.00     2.495
  4086.00     2.385
  4088.00     2.305
  4090.00     2.180
  4092.00     2.080
  4094.00     1.935
  4096.00     1.845
  4098.00     1.750
  4100.00     1.660
  4102.00     1.590
  4104.00     1.535
  4106.00     1.420
  4108.00     1.350
  4110.00     1.305
  4112.00     1.210
  4114.00     1.155
  4116.00     1.095
  4118.00     1.065
  4120.00     0.990
  4122.00     0.935
  4124.00     0.885
  4126.00     0.850
  4128.00     0.785
  4130.00     0.770
  4132.00     0.705
  4134.00     0.660
  4136.00     0.630
  4138.00     0.605
  4140.00     0.575
  4142.00     0.555
  4144.00     0.500
  4146.00     0.490
  4148.00     0.450
  4150.00     0.430
  4152.00     0.405
  4154.00     0.390
  4156.00     0.375
  4158.00     0.345
  4160.00     0.335
  4162.00     0.310
  4164.00     0.285
  4166.00     0.265
  4168.00     0.265
  4170.00     0.245
  4172.00     0.225
  4174.00     0.215
  4176.00     0.200
  4178.00     0.195
  4180.00     0.175
  4182.00     0.155
  4184.00     0.155
  4186.00     0.145
  4188.00     0.130
  4190.00     0.125
  4192.00     0.125
  4194.00     0.115
  4196.00     0.110
  4198.00     0.105
  4200.00     0.090
  4202.00     0.090
  4204.00     0.080
  4206.00     0.075
  4208.00     0.070
  4210.00     0.075
  4212.00     0.065
  4214.00     0.060
  4216.00     0.060
  4218.00     0.055
  4220.00     0.055
  4222.00     0.045
  4224.00     0.050
  4226.00     0.045
  4228.00     0.035
  4230.00     0.035
  4232.00     0.035
  4234.00     0.035
  4236.00     0.035
  4238.00     0.025
  4240.00     0.025
  4242.00     0.025
  4244.00     0.025
  4246.00     0.025
  4248.00     0.020
  4250.00     0.020
  4252.00     0.020
  4254.00     0.015
  4256.00     0.015
  4258.00     0.015
  4260.00     0.015
  4262.00     0.015
  4264.00     0.015
  4266.00     0.010
  4268.00     0.010
  4270.00     0.010
  4272.00     0.010
  4274.00     0.010
  4276.00     0.005
  4278.00     0.005
  4280.00     0.005
  4282.00     0.010
  4284.00     0.010
  4286.00     0.010
  4288.00     0.010
  4290.00     0.010
  4292.00     0.005
  4294.00     0.005
  4296.00     0.005
  4298.00     0.005
  4300.00     0.005
  4302.00     0.005
  4304.00     0.000
  4306.00     0.005
  4308.00     0.005
  4310.00     0.005
  4312.00     0.005
  4314.00     0.005
  4316.00     0.000
  4318.00     0.000
  4320.00     0.000
  4322.00     0.000
  4324.00     0.005
  4326.00     0.005
  4328.00     0.000
  4330.00     0.000
  4332.00     0.000
  4334.00     0.000
  4336.00     0.000
  4338.00     0.000
  4340.00     0.000
  4342.00     0.000
  4344.00     0.000
  4346.00     0.000
  4348.00     0.000
  4350.00     0.005
  4352.00     0.000
  4354.00     0.000
  4356.00    -0.005
  4358.00     0.000
  4360.00     0.000
  4362.00     0.000
  4364.00     0.000
  4366.00     0.000
  4368.00     0.000
  4370.00     0.000
  4372.00     0.000
  4374.00     0.000
  4376.00     0.000
  4378.00     0.000
  4380.00     0.000
  4382.00     0.005
  4384.00     0.000
  4386.00     0.000
  4388.00     0.000
  4390.00     0.000
  4392.00     0.000
  4394.00     0.000
  4396.00     0.000
  4398.00    -0.005
  4400.00     0.000
  4402.00    -0.005
  4404.00     0.000
  4406.00    -0.005
  4408.00     0.000
  4410.00     0.000
  4412.00     0.000
  4414.00     0.000
  4416.00    -0.005
  4418.00     0.000
  4420.00     0.000
  4422.00     0.000
  4424.00     0.000
  4426.00     0.000
  4428.00     0.000
  4430.00     0.000
  4432.00     0.000
  4434.00     0.000
  4436.00     0.000
  4438.00     0.000
  4440.00     0.000
  4442.00     0.000
  4444.00     0.000
  4446.00     0.000
  4448.00     0.000
  4450.00     0.005
  4452.00     0.000
  4454.00     0.000
  4456.00     0.000
  4458.00     0.000
  4460.00     0.000
  4462.00     0.000
  4464.00     0.000
  4466.00     0.000
  4468.00     0.000
  4470.00     0.000
  4472.00     0.000
  4474.00     0.000
  4476.00     0.000
  4478.00     0.000
  4480.00     0.005
  4482.00     0.000
  4484.00     0.000
  4486.00     0.000
  4488.00     0.000
  4490.00     0.000
  4492.00     0.000
  4494.00     0.000
  4496.00     0.000
  4498.00     0.000
  4500.00     0.000
  4502.00     0.000
  4504.00     0.000
  4506.00     0.000
  4508.00     0.000
  4510.00     0.000
  4512.00     0.000
  4514.00     0.000
  4516.00     0.000
  4518.00     0.000
  4520.00     0.000
  4522.00     0.000
  4524.00     0.000
  4526.00     0.000
  4528.00     0.000
  4530.00     0.000
  4532.00     0.000
  4534.00     0.000
  4536.00     0.000
  4538.00     0.000
  4540.00     0.000
  4542.00     0.000
  4544.00     0.000
  4546.00     0.000
  4548.00     0.000
  4550.00     0.000
  4552.00     0.000
  4554.00     0.000
  4556.00     0.000
  4558.00     0.005
  4560.00     0.000
  4562.00     0.000
  4564.00     0.000
  4566.00     0.000
  4568.00     0.000
  4570.00     0.000
  4572.00     0.000
  4574.00     0.000
  4576.00     0.000
  4578.00     0.000
  4580.00     0.000
  4582.00     0.000
  4584.00     0.000
  4586.00     0.000
  4588.00     0.000
  4590.00     0.000
  4592.00     0.000
  4594.00     0.000
  4596.00     0.000
  4598.00     0.000
  4600.00     0.005

