#== Filter Data - Lambda 9 Spectrophotometer ==
#  Kitt Peak National Observatory - NOAO
#------------------------------------------------
#Filter: WIYN Ib 2NM/30NMPERMIN/0.5S 625-1050NM
#Date: 11/19/01 Time: 14:31:08 Operator: HS
#cwl= 8364.03A fwhm= 2127.04A Tmax= 92.68% at 8060.00A
#Tcutoff= 2.00 % Slitsize = 20 A
#fwhm spans 7300.51A to 9427.55A
#90% spans 7516.89A to 8969.83A
#bw90 is 0.683; Tmin90/Tmax is 0.900
#No data smoothing
#
#Npts= 426 Disp= 10.00A/Interval
#*****
  6250.00 -0.005
  6260.00 -0.005
  6270.00 -0.005
  6280.00 -0.005
  6290.00 -0.005
  6300.00 -0.005
  6310.00 -0.005
  6320.00 -0.005
  6330.00 -0.005
  6340.00 -0.005
  6350.00 -0.005
  6360.00 -0.005
  6370.00 -0.005
  6380.00 -0.005
  6390.00 -0.005
  6400.00 -0.005
  6410.00 -0.005
  6420.00 -0.005
  6430.00 -0.005
  6440.00 -0.005
  6450.00 -0.005
  6460.00 -0.005
  6470.00 0.000
  6480.00 0.000
  6490.00 -0.005
  6500.00 -0.005
  6510.00 -0.005
  6520.00 -0.005
  6530.00 -0.005
  6540.00 -0.005
  6550.00 -0.005
  6560.00 -0.005
  6570.00 -0.005
  6580.00 -0.005
  6590.00 -0.005
  6600.00 -0.005
  6610.00 -0.005
  6620.00 -0.005
  6630.00 -0.005
  6640.00 -0.005
  6650.00 0.000
  6660.00 -0.005
  6670.00 -0.005
  6680.00 -0.005
  6690.00 -0.005
  6700.00 -0.005
  6710.00 -0.005
  6720.00 -0.005
  6730.00 -0.005
  6740.00 -0.005
  6750.00 -0.005
  6760.00 0.000
  6770.00 -0.005
  6780.00 0.000
  6790.00 -0.005
  6800.00 -0.010
  6810.00 0.000
  6820.00 -0.010
  6830.00 0.000
  6840.00 -0.005
  6850.00 -0.005
  6860.00 -0.005
  6870.00 0.000
  6880.00 -0.005
  6890.00 -0.005
  6900.00 0.000
  6910.00 -0.005
  6920.00 -0.005
  6930.00 -0.005
  6940.00 -0.005
  6950.00 -0.005
  6960.00 0.000
  6970.00 0.005
  6980.00 0.005
  6990.00 0.020
  7000.00 0.035
  7010.00 0.070
  7020.00 0.125
  7030.00 0.205
  7040.00 0.330
  7050.00 0.505
  7060.00 0.750
  7070.00 1.080
  7080.00 1.515
  7090.00 2.080
  7100.00 2.805
  7110.00 3.670
  7120.00 4.690
  7130.00 5.875
  7140.00 7.270
  7150.00 8.840
  7160.00 10.580
  7170.00 12.490
  7180.00 14.580
  7190.00 16.805
  7200.00 19.210
  7210.00 21.725
  7220.00 24.295
  7230.00 26.945
  7240.00 29.655
  7250.00 32.430
  7260.00 35.215
  7270.00 37.975
  7280.00 40.725
  7290.00 43.445
  7300.00 46.205
  7310.00 48.845
  7320.00 51.430
  7330.00 53.950
  7340.00 56.460
  7350.00 58.795
  7360.00 61.070
  7370.00 63.070
  7380.00 65.195
  7390.00 67.220
  7400.00 69.120
  7410.00 70.940
  7420.00 72.625
  7430.00 74.195
  7440.00 75.580
  7450.00 76.970
  7460.00 78.230
  7470.00 79.250
  7480.00 80.395
  7490.00 81.355
  7500.00 82.250
  7510.00 82.885
  7520.00 83.650
  7530.00 84.220
  7540.00 84.665
  7550.00 85.205
  7560.00 85.455
  7570.00 85.755
  7580.00 85.955
  7590.00 86.285
  7600.00 86.375
  7610.00 86.435
  7620.00 86.475
  7630.00 86.495
  7640.00 86.450
  7650.00 86.505
  7660.00 86.515
  7670.00 86.495
  7680.00 86.510
  7690.00 86.340
  7700.00 86.425
  7710.00 86.325
  7720.00 86.395
  7730.00 86.410
  7740.00 86.540
  7750.00 86.500
  7760.00 86.545
  7770.00 86.700
  7780.00 86.895
  7790.00 86.995
  7800.00 87.095
  7810.00 87.315
  7820.00 87.540
  7830.00 87.740
  7840.00 87.875
  7850.00 88.190
  7860.00 88.400
  7870.00 88.570
  7880.00 88.945
  7890.00 89.270
  7900.00 89.490
  7910.00 89.790
  7920.00 90.100
  7930.00 90.445
  7940.00 90.780
  7950.00 90.955
  7960.00 91.260
  7970.00 91.445
  7980.00 91.610
  7990.00 91.860
  8000.00 91.955
  8010.00 92.220
  8020.00 92.440
  8030.00 92.395
  8040.00 92.445
  8050.00 92.665
  8060.00 92.680
  8070.00 92.655
  8080.00 92.675
  8090.00 92.605
  8100.00 92.500
  8110.00 92.515
  8120.00 92.505
  8130.00 92.470
  8140.00 92.365
  8150.00 92.410
  8160.00 92.240
  8170.00 92.130
  8180.00 92.010
  8190.00 91.925
  8200.00 91.670
  8210.00 91.660
  8220.00 91.480
  8230.00 91.510
  8240.00 91.090
  8250.00 91.195
  8260.00 91.000
  8270.00 90.755
  8280.00 90.770
  8290.00 90.430
  8300.00 90.420
  8310.00 90.415
  8320.00 90.180
  8330.00 90.170
  8340.00 89.625
  8350.00 89.780
  8360.00 89.595
  8370.00 89.465
  8380.00 89.540
  8390.00 89.290
  8400.00 89.025
  8410.00 88.835
  8420.00 88.540
  8430.00 88.530
  8440.00 88.370
  8450.00 87.965
  8460.00 88.095
  8470.00 87.820
  8480.00 87.675
  8490.00 87.425
  8500.00 87.435
  8510.00 87.000
  8520.00 87.085
  8530.00 86.765
  8540.00 86.750
  8550.00 86.570
  8560.00 86.335
  8570.00 85.950
  8580.00 85.925
  8590.00 85.600
  8600.00 85.625
  8610.00 85.785
  8620.00 85.725
  8630.00 85.670
  8640.00 85.675
  8650.00 85.690
  8660.00 85.705
  8670.00 85.735
  8680.00 85.760
  8690.00 85.810
  8700.00 85.845
  8710.00 85.900
  8720.00 85.945
  8730.00 86.020
  8740.00 86.075
  8750.00 86.115
  8760.00 86.195
  8770.00 86.225
  8780.00 86.285
  8790.00 86.310
  8800.00 86.365
  8810.00 86.315
  8820.00 86.325
  8830.00 86.290
  8840.00 86.245
  8850.00 86.210
  8860.00 86.085
  8870.00 85.985
  8880.00 85.855
  8890.00 85.660
  8900.00 85.520
  8910.00 85.285
  8920.00 85.015
  8930.00 84.785
  8940.00 84.470
  8950.00 84.120
  8960.00 83.810
  8970.00 83.405
  8980.00 83.005
  8990.00 82.660
  9000.00 82.270
  9010.00 81.840
  9020.00 81.420
  9030.00 80.985
  9040.00 80.540
  9050.00 80.170
  9060.00 79.745
  9070.00 79.370
  9080.00 79.030
  9090.00 78.685
  9100.00 78.385
  9110.00 78.110
  9120.00 77.865
  9130.00 77.680
  9140.00 77.490
  9150.00 77.370
  9160.00 77.270
  9170.00 77.195
  9180.00 77.170
  9190.00 77.130
  9200.00 77.155
  9210.00 77.170
  9220.00 77.165
  9230.00 77.165
  9240.00 77.110
  9250.00 77.035
  9260.00 76.845
  9270.00 76.585
  9280.00 76.205
  9290.00 75.660
  9300.00 74.970
  9310.00 74.035
  9320.00 72.940
  9330.00 71.615
  9340.00 69.910
  9350.00 68.035
  9360.00 65.910
  9370.00 63.495
  9380.00 60.840
  9390.00 58.025
  9400.00 55.020
  9410.00 51.890
  9420.00 48.775
  9430.00 45.550
  9440.00 42.415
  9450.00 39.245
  9460.00 36.195
  9470.00 33.210
  9480.00 30.420
  9490.00 27.790
  9500.00 25.310
  9510.00 23.055
  9520.00 20.995
  9530.00 19.035
  9540.00 17.305
  9550.00 15.715
  9560.00 14.300
  9570.00 12.965
  9580.00 11.755
  9590.00 10.715
  9600.00 9.755
  9610.00 8.855
  9620.00 8.115
  9630.00 7.395
  9640.00 6.755
  9650.00 6.165
  9660.00 5.710
  9670.00 5.245
  9680.00 4.820
  9690.00 4.420
  9700.00 4.065
  9710.00 3.790
  9720.00 3.505
  9730.00 3.245
  9740.00 2.995
  9750.00 2.785
  9760.00 2.580
  9770.00 2.400
  9780.00 2.230
  9790.00 2.065
  9800.00 1.925
  9810.00 1.785
  9820.00 1.675
  9830.00 1.555
  9840.00 1.460
  9850.00 1.375
  9860.00 1.290
  9870.00 1.215
  9880.00 1.140
  9890.00 1.060
  9900.00 1.030
  9910.00 0.980
  9920.00 0.920
  9930.00 0.845
  9940.00 0.800
  9950.00 0.760
  9960.00 0.725
  9970.00 0.690
  9980.00 0.660
  9990.00 0.625
 10000.00 0.595
 10010.00 0.575
 10020.00 0.505
 10030.00 0.500
 10040.00 0.490
 10050.00 0.475
 10060.00 0.455
 10070.00 0.395
 10080.00 0.400
 10090.00 0.395
 10100.00 0.375
 10110.00 0.335
 10120.00 0.345
 10130.00 0.335
 10140.00 0.280
 10150.00 0.300
 10160.00 0.285
 10170.00 0.280
 10180.00 0.230
 10190.00 0.250
 10200.00 0.245
 10210.00 0.240
 10220.00 0.205
 10230.00 0.220
 10240.00 0.220
 10250.00 0.180
 10260.00 0.195
 10270.00 0.195
 10280.00 0.165
 10290.00 0.180
 10300.00 0.135
 10310.00 0.165
 10320.00 0.165
 10330.00 0.145
 10340.00 0.155
 10350.00 0.105
 10360.00 0.145
 10370.00 0.150
 10380.00 0.115
 10390.00 0.130
 10400.00 0.130
 10410.00 0.120
 10420.00 0.120
 10430.00 0.090
 10440.00 0.110
 10450.00 0.070
 10460.00 0.100
 10470.00 0.100
 10480.00 0.100
 10490.00 0.100
 10500.00 0.095
