#== Filter Data - Lambda 9 Spectrophotometer ==
#  Kitt Peak National Observatory - NOAO
#------------------------------------------------
#Filter: 0.2NM/15NMPERMIN/1S   365 TO 615NM
#Date: 08/06/03   Time: 14:26:53  Operator: HS
#cwl=  4747.86A  fwhm= 1518.02A  Tmax= 93.13% at  5014.00A
#Tcutoff=  2.00 %  Slitsize =  2 A
#fwhm spans 3988.85A to 5506.87A
#90%  spans 4383.26A to 5415.63A
#bw90 is  0.680; Tmin90/Tmax is  0.854
#No data smoothing
#
#Npts= 1251     Disp=  2.00A/Interval
#*****
  3650.00     0.000
  3652.00    -0.005
  3654.00    -0.005
  3656.00    -0.005
  3658.00     0.000
  3660.00     0.000
  3662.00     0.000
  3664.00    -0.005
  3666.00     0.000
  3668.00    -0.005
  3670.00     0.000
  3672.00     0.000
  3674.00     0.000
  3676.00     0.000
  3678.00    -0.005
  3680.00     0.000
  3682.00     0.000
  3684.00     0.000
  3686.00    -0.005
  3688.00     0.000
  3690.00    -0.005
  3692.00    -0.005
  3694.00     0.000
  3696.00     0.000
  3698.00     0.000
  3700.00     0.000
  3702.00     0.000
  3704.00     0.000
  3706.00     0.000
  3708.00     0.000
  3710.00     0.005
  3712.00     0.000
  3714.00     0.005
  3716.00     0.005
  3718.00     0.005
  3720.00     0.000
  3722.00     0.005
  3724.00     0.005
  3726.00     0.000
  3728.00     0.005
  3730.00     0.005
  3732.00     0.005
  3734.00     0.010
  3736.00     0.005
  3738.00     0.000
  3740.00     0.010
  3742.00     0.010
  3744.00     0.005
  3746.00     0.000
  3748.00     0.010
  3750.00     0.005
  3752.00     0.000
  3754.00     0.005
  3756.00     0.005
  3758.00     0.005
  3760.00     0.010
  3762.00     0.005
  3764.00     0.010
  3766.00     0.005
  3768.00     0.000
  3770.00     0.005
  3772.00     0.005
  3774.00     0.015
  3776.00     0.005
  3778.00     0.005
  3780.00     0.005
  3782.00     0.005
  3784.00     0.010
  3786.00     0.015
  3788.00     0.000
  3790.00     0.000
  3792.00     0.005
  3794.00     0.010
  3796.00     0.005
  3798.00     0.005
  3800.00     0.005
  3802.00     0.005
  3804.00     0.010
  3806.00     0.005
  3808.00     0.005
  3810.00     0.010
  3812.00     0.005
  3814.00     0.010
  3816.00     0.005
  3818.00     0.010
  3820.00     0.005
  3822.00     0.010
  3824.00     0.010
  3826.00     0.010
  3828.00     0.010
  3830.00     0.015
  3832.00     0.010
  3834.00     0.015
  3836.00     0.015
  3838.00     0.015
  3840.00     0.015
  3842.00     0.020
  3844.00     0.010
  3846.00     0.020
  3848.00     0.025
  3850.00     0.020
  3852.00     0.030
  3854.00     0.035
  3856.00     0.045
  3858.00     0.050
  3860.00     0.060
  3862.00     0.070
  3864.00     0.090
  3866.00     0.105
  3868.00     0.125
  3870.00     0.160
  3872.00     0.185
  3874.00     0.230
  3876.00     0.290
  3878.00     0.340
  3880.00     0.400
  3882.00     0.480
  3884.00     0.565
  3886.00     0.665
  3888.00     0.770
  3890.00     0.885
  3892.00     1.045
  3894.00     1.220
  3896.00     1.420
  3898.00     1.615
  3900.00     1.840
  3902.00     2.105
  3904.00     2.410
  3906.00     2.710
  3908.00     3.070
  3910.00     3.410
  3912.00     3.870
  3914.00     4.365
  3916.00     4.765
  3918.00     5.365
  3920.00     5.950
  3922.00     6.450
  3924.00     7.150
  3926.00     7.790
  3928.00     8.555
  3930.00     9.325
  3932.00    10.135
  3934.00    11.030
  3936.00    12.030
  3938.00    12.940
  3940.00    14.025
  3942.00    15.015
  3944.00    16.000
  3946.00    17.145
  3948.00    18.425
  3950.00    19.625
  3952.00    20.935
  3954.00    22.225
  3956.00    23.605
  3958.00    24.970
  3960.00    26.285
  3962.00    27.570
  3964.00    29.015
  3966.00    30.525
  3968.00    31.870
  3970.00    33.340
  3972.00    34.865
  3974.00    36.245
  3976.00    37.790
  3978.00    39.205
  3980.00    40.635
  3982.00    42.080
  3984.00    43.270
  3986.00    44.760
  3988.00    46.070
  3990.00    47.235
  3992.00    48.610
  3994.00    49.680
  3996.00    50.675
  3998.00    51.905
  4000.00    52.840
  4002.00    53.870
  4004.00    54.595
  4006.00    55.685
  4008.00    56.585
  4010.00    57.325
  4012.00    58.000
  4014.00    58.750
  4016.00    59.135
  4018.00    59.670
  4020.00    60.280
  4022.00    60.905
  4024.00    61.040
  4026.00    61.855
  4028.00    62.210
  4030.00    62.400
  4032.00    62.635
  4034.00    63.020
  4036.00    63.055
  4038.00    63.605
  4040.00    63.870
  4042.00    63.690
  4044.00    64.265
  4046.00    64.470
  4048.00    64.595
  4050.00    64.740
  4052.00    64.930
  4054.00    64.825
  4056.00    65.165
  4058.00    65.640
  4060.00    65.585
  4062.00    65.215
  4064.00    66.065
  4066.00    65.840
  4068.00    66.300
  4070.00    66.315
  4072.00    66.815
  4074.00    66.820
  4076.00    66.995
  4078.00    67.195
  4080.00    67.710
  4082.00    67.695
  4084.00    67.820
  4086.00    68.250
  4088.00    68.115
  4090.00    68.630
  4092.00    68.680
  4094.00    69.035
  4096.00    69.070
  4098.00    69.480
  4100.00    69.940
  4102.00    70.360
  4104.00    70.220
  4106.00    70.490
  4108.00    70.665
  4110.00    70.895
  4112.00    71.235
  4114.00    71.525
  4116.00    71.960
  4118.00    72.340
  4120.00    72.490
  4122.00    72.460
  4124.00    72.500
  4126.00    73.110
  4128.00    73.325
  4130.00    73.495
  4132.00    73.600
  4134.00    74.040
  4136.00    74.260
  4138.00    74.440
  4140.00    74.745
  4142.00    74.915
  4144.00    75.165
  4146.00    75.260
  4148.00    75.880
  4150.00    75.605
  4152.00    75.920
  4154.00    76.135
  4156.00    76.330
  4158.00    76.645
  4160.00    76.665
  4162.00    76.940
  4164.00    76.975
  4166.00    76.990
  4168.00    76.855
  4170.00    77.345
  4172.00    77.170
  4174.00    77.685
  4176.00    77.665
  4178.00    77.705
  4180.00    77.870
  4182.00    77.800
  4184.00    78.040
  4186.00    77.980
  4188.00    77.985
  4190.00    78.485
  4192.00    78.440
  4194.00    78.300
  4196.00    78.425
  4198.00    78.605
  4200.00    78.975
  4202.00    78.935
  4204.00    79.145
  4206.00    78.990
  4208.00    79.305
  4210.00    79.010
  4212.00    79.275
  4214.00    79.570
  4216.00    79.275
  4218.00    79.425
  4220.00    79.650
  4222.00    79.730
  4224.00    79.720
  4226.00    79.970
  4228.00    79.995
  4230.00    79.825
  4232.00    80.320
  4234.00    80.400
  4236.00    80.310
  4238.00    80.625
  4240.00    80.540
  4242.00    80.610
  4244.00    80.630
  4246.00    80.830
  4248.00    80.695
  4250.00    81.060
  4252.00    81.080
  4254.00    81.205
  4256.00    81.555
  4258.00    81.880
  4260.00    82.005
  4262.00    82.015
  4264.00    81.795
  4266.00    81.735
  4268.00    82.125
  4270.00    82.155
  4272.00    81.885
  4274.00    82.390
  4276.00    82.020
  4278.00    82.450
  4280.00    82.600
  4282.00    82.595
  4284.00    82.510
  4286.00    82.375
  4288.00    82.505
  4290.00    82.805
  4292.00    82.860
  4294.00    82.740
  4296.00    82.880
  4298.00    82.955
  4300.00    82.865
  4302.00    82.790
  4304.00    82.950
  4306.00    83.020
  4308.00    83.135
  4310.00    83.125
  4312.00    83.215
  4314.00    83.280
  4316.00    82.805
  4318.00    82.845
  4320.00    82.785
  4322.00    83.020
  4324.00    83.365
  4326.00    83.490
  4328.00    83.205
  4330.00    83.360
  4332.00    83.045
  4334.00    83.470
  4336.00    83.505
  4338.00    83.205
  4340.00    83.520
  4342.00    83.135
  4344.00    83.265
  4346.00    83.170
  4348.00    83.160
  4350.00    83.355
  4352.00    83.380
  4354.00    83.545
  4356.00    83.290
  4358.00    83.380
  4360.00    83.605
  4362.00    83.530
  4364.00    83.430
  4366.00    83.660
  4368.00    83.545
  4370.00    83.550
  4372.00    83.535
  4374.00    83.520
  4376.00    83.775
  4378.00    83.710
  4380.00    83.805
  4382.00    83.530
  4384.00    83.980
  4386.00    83.795
  4388.00    84.315
  4390.00    84.050
  4392.00    84.350
  4394.00    84.040
  4396.00    84.420
  4398.00    84.510
  4400.00    85.035
  4402.00    85.160
  4404.00    84.840
  4406.00    84.795
  4408.00    84.575
  4410.00    85.220
  4412.00    85.230
  4414.00    85.320
  4416.00    86.000
  4418.00    85.565
  4420.00    85.440
  4422.00    85.585
  4424.00    85.700
  4426.00    85.825
  4428.00    85.915
  4430.00    85.825
  4432.00    85.680
  4434.00    86.340
  4436.00    86.180
  4438.00    86.095
  4440.00    85.930
  4442.00    86.715
  4444.00    86.540
  4446.00    86.930
  4448.00    86.455
  4450.00    86.640
  4452.00    86.665
  4454.00    86.670
  4456.00    87.020
  4458.00    86.825
  4460.00    86.895
  4462.00    86.925
  4464.00    86.795
  4466.00    87.285
  4468.00    87.030
  4470.00    86.765
  4472.00    86.800
  4474.00    86.935
  4476.00    86.950
  4478.00    87.125
  4480.00    86.815
  4482.00    86.975
  4484.00    86.930
  4486.00    87.155
  4488.00    86.735
  4490.00    86.595
  4492.00    86.605
  4494.00    86.485
  4496.00    86.225
  4498.00    86.395
  4500.00    86.245
  4502.00    86.365
  4504.00    86.365
  4506.00    86.015
  4508.00    86.035
  4510.00    85.845
  4512.00    85.950
  4514.00    85.635
  4516.00    85.665
  4518.00    85.655
  4520.00    85.415
  4522.00    85.125
  4524.00    85.285
  4526.00    85.330
  4528.00    85.005
  4530.00    85.255
  4532.00    84.915
  4534.00    84.830
  4536.00    84.605
  4538.00    84.685
  4540.00    84.590
  4542.00    84.635
  4544.00    84.560
  4546.00    84.500
  4548.00    84.235
  4550.00    84.165
  4552.00    84.325
  4554.00    84.400
  4556.00    84.120
  4558.00    84.225
  4560.00    84.215
  4562.00    83.845
  4564.00    83.935
  4566.00    84.110
  4568.00    84.225
  4570.00    84.340
  4572.00    83.985
  4574.00    84.010
  4576.00    84.220
  4578.00    84.220
  4580.00    84.300
  4582.00    84.355
  4584.00    84.420
  4586.00    84.425
  4588.00    84.590
  4590.00    84.340
  4592.00    84.570
  4594.00    84.830
  4596.00    84.615
  4598.00    84.985
  4600.00    84.845
  4602.00    85.070
  4604.00    85.235
  4606.00    85.245
  4608.00    85.500
  4610.00    85.645
  4612.00    85.630
  4614.00    85.980
  4616.00    86.155
  4618.00    86.175
  4620.00    86.290
  4622.00    86.555
  4624.00    86.515
  4626.00    86.855
  4628.00    87.015
  4630.00    86.905
  4632.00    87.120
  4634.00    87.435
  4636.00    87.635
  4638.00    87.725
  4640.00    87.960
  4642.00    87.950
  4644.00    88.090
  4646.00    88.295
  4648.00    88.405
  4650.00    88.675
  4652.00    88.840
  4654.00    88.970
  4656.00    88.915
  4658.00    89.170
  4660.00    89.160
  4662.00    89.505
  4664.00    89.725
  4666.00    89.495
  4668.00    89.885
  4670.00    90.050
  4672.00    89.995
  4674.00    90.070
  4676.00    90.180
  4678.00    90.170
  4680.00    90.295
  4682.00    90.445
  4684.00    90.180
  4686.00    90.405
  4688.00    90.485
  4690.00    90.555
  4692.00    90.605
  4694.00    90.450
  4696.00    90.390
  4698.00    90.375
  4700.00    90.290
  4702.00    90.395
  4704.00    90.215
  4706.00    90.135
  4708.00    90.225
  4710.00    90.070
  4712.00    89.950
  4714.00    89.720
  4716.00    89.525
  4718.00    89.800
  4720.00    89.610
  4722.00    89.395
  4724.00    89.205
  4726.00    89.000
  4728.00    88.795
  4730.00    88.770
  4732.00    88.755
  4734.00    88.580
  4736.00    88.460
  4738.00    87.910
  4740.00    87.975
  4742.00    87.580
  4744.00    87.760
  4746.00    87.260
  4748.00    86.980
  4750.00    86.980
  4752.00    86.525
  4754.00    86.590
  4756.00    86.005
  4758.00    85.900
  4760.00    85.765
  4762.00    85.180
  4764.00    85.145
  4766.00    85.005
  4768.00    85.090
  4770.00    84.610
  4772.00    84.420
  4774.00    84.360
  4776.00    84.180
  4778.00    83.840
  4780.00    83.720
  4782.00    83.395
  4784.00    82.920
  4786.00    83.040
  4788.00    82.695
  4790.00    82.370
  4792.00    82.390
  4794.00    82.220
  4796.00    82.015
  4798.00    81.710
  4800.00    81.545
  4802.00    81.500
  4804.00    81.480
  4806.00    81.040
  4808.00    81.050
  4810.00    80.880
  4812.00    80.840
  4814.00    80.885
  4816.00    80.720
  4818.00    80.390
  4820.00    80.515
  4822.00    80.500
  4824.00    80.475
  4826.00    80.050
  4828.00    79.905
  4830.00    79.820
  4832.00    79.860
  4834.00    79.765
  4836.00    79.570
  4838.00    80.005
  4840.00    79.615
  4842.00    79.990
  4844.00    79.805
  4846.00    80.060
  4848.00    79.705
  4850.00    79.895
  4852.00    79.985
  4854.00    80.050
  4856.00    79.930
  4858.00    80.340
  4860.00    80.205
  4862.00    80.120
  4864.00    80.490
  4866.00    80.605
  4868.00    80.910
  4870.00    80.685
  4872.00    80.805
  4874.00    80.960
  4876.00    81.165
  4878.00    81.095
  4880.00    81.320
  4882.00    81.510
  4884.00    81.455
  4886.00    81.860
  4888.00    81.885
  4890.00    81.755
  4892.00    82.380
  4894.00    82.405
  4896.00    82.395
  4898.00    82.770
  4900.00    83.065
  4902.00    83.100
  4904.00    83.405
  4906.00    83.750
  4908.00    83.845
  4910.00    83.935
  4912.00    84.580
  4914.00    84.640
  4916.00    84.750
  4918.00    85.025
  4920.00    85.490
  4922.00    85.500
  4924.00    85.715
  4926.00    85.795
  4928.00    86.025
  4930.00    86.460
  4932.00    86.620
  4934.00    86.980
  4936.00    87.260
  4938.00    87.685
  4940.00    87.495
  4942.00    87.895
  4944.00    88.095
  4946.00    88.275
  4948.00    88.785
  4950.00    88.740
  4952.00    88.935
  4954.00    89.075
  4956.00    89.485
  4958.00    89.520
  4960.00    89.930
  4962.00    90.185
  4964.00    90.245
  4966.00    90.450
  4968.00    90.490
  4970.00    90.635
  4972.00    90.995
  4974.00    91.165
  4976.00    91.475
  4978.00    91.335
  4980.00    91.490
  4982.00    91.735
  4984.00    91.740
  4986.00    92.085
  4988.00    92.195
  4990.00    92.135
  4992.00    92.265
  4994.00    92.595
  4996.00    92.515
  4998.00    92.590
  5000.00    92.515
  5002.00    92.960
  5004.00    92.785
  5006.00    93.065
  5008.00    92.845
  5010.00    92.865
  5012.00    92.935
  5014.00    93.125
  5016.00    92.560
  5018.00    92.825
  5020.00    92.715
  5022.00    93.065
  5024.00    92.900
  5026.00    92.665
  5028.00    92.870
  5030.00    92.720
  5032.00    92.740
  5034.00    92.700
  5036.00    92.535
  5038.00    92.550
  5040.00    92.385
  5042.00    92.405
  5044.00    92.155
  5046.00    92.090
  5048.00    92.020
  5050.00    91.970
  5052.00    91.795
  5054.00    91.665
  5056.00    91.470
  5058.00    91.270
  5060.00    91.220
  5062.00    91.020
  5064.00    90.945
  5066.00    90.710
  5068.00    90.560
  5070.00    90.775
  5072.00    90.350
  5074.00    90.280
  5076.00    90.265
  5078.00    89.990
  5080.00    89.845
  5082.00    89.775
  5084.00    89.600
  5086.00    89.415
  5088.00    89.235
  5090.00    89.135
  5092.00    89.130
  5094.00    88.825
  5096.00    88.635
  5098.00    88.525
  5100.00    88.270
  5102.00    88.205
  5104.00    87.965
  5106.00    87.720
  5108.00    87.695
  5110.00    87.350
  5112.00    87.495
  5114.00    87.195
  5116.00    87.190
  5118.00    87.150
  5120.00    87.055
  5122.00    87.000
  5124.00    86.735
  5126.00    86.515
  5128.00    86.550
  5130.00    86.355
  5132.00    86.135
  5134.00    86.210
  5136.00    86.100
  5138.00    86.050
  5140.00    85.850
  5142.00    85.660
  5144.00    85.650
  5146.00    85.525
  5148.00    85.785
  5150.00    85.415
  5152.00    85.290
  5154.00    85.285
  5156.00    85.070
  5158.00    85.075
  5160.00    84.975
  5162.00    85.005
  5164.00    84.890
  5166.00    84.905
  5168.00    85.100
  5170.00    85.040
  5172.00    85.080
  5174.00    84.835
  5176.00    84.960
  5178.00    84.875
  5180.00    84.980
  5182.00    84.920
  5184.00    84.805
  5186.00    84.575
  5188.00    84.835
  5190.00    84.520
  5192.00    84.515
  5194.00    84.745
  5196.00    84.915
  5198.00    84.870
  5200.00    84.805
  5202.00    84.540
  5204.00    84.655
  5206.00    85.055
  5208.00    85.240
  5210.00    85.040
  5212.00    85.095
  5214.00    85.275
  5216.00    85.195
  5218.00    85.225
  5220.00    85.550
  5222.00    85.460
  5224.00    85.410
  5226.00    85.780
  5228.00    85.600
  5230.00    85.655
  5232.00    85.750
  5234.00    85.915
  5236.00    85.900
  5238.00    86.055
  5240.00    85.965
  5242.00    86.010
  5244.00    86.190
  5246.00    86.105
  5248.00    86.545
  5250.00    86.725
  5252.00    86.765
  5254.00    86.715
  5256.00    86.765
  5258.00    87.075
  5260.00    86.935
  5262.00    87.215
  5264.00    87.380
  5266.00    87.635
  5268.00    87.610
  5270.00    87.590
  5272.00    87.485
  5274.00    87.670
  5276.00    87.905
  5278.00    88.055
  5280.00    88.110
  5282.00    87.900
  5284.00    88.240
  5286.00    88.350
  5288.00    88.465
  5290.00    88.615
  5292.00    88.615
  5294.00    88.915
  5296.00    88.775
  5298.00    88.940
  5300.00    88.935
  5302.00    88.990
  5304.00    89.365
  5306.00    89.250
  5308.00    89.610
  5310.00    89.250
  5312.00    89.595
  5314.00    89.420
  5316.00    89.670
  5318.00    89.650
  5320.00    89.750
  5322.00    89.890
  5324.00    89.650
  5326.00    90.105
  5328.00    90.120
  5330.00    90.170
  5332.00    90.070
  5334.00    90.235
  5336.00    90.255
  5338.00    89.885
  5340.00    90.355
  5342.00    90.145
  5344.00    89.975
  5346.00    90.040
  5348.00    90.085
  5350.00    90.050
  5352.00    89.990
  5354.00    90.095
  5356.00    89.785
  5358.00    89.875
  5360.00    89.790
  5362.00    89.780
  5364.00    89.775
  5366.00    89.605
  5368.00    89.565
  5370.00    89.595
  5372.00    89.450
  5374.00    89.255
  5376.00    89.170
  5378.00    88.965
  5380.00    89.030
  5382.00    88.945
  5384.00    88.675
  5386.00    88.625
  5388.00    88.310
  5390.00    88.105
  5392.00    87.785
  5394.00    87.540
  5396.00    87.315
  5398.00    86.915
  5400.00    86.950
  5402.00    86.535
  5404.00    86.270
  5406.00    85.545
  5408.00    85.260
  5410.00    85.000
  5412.00    84.730
  5414.00    84.300
  5416.00    83.700
  5418.00    83.490
  5420.00    82.825
  5422.00    82.655
  5424.00    82.185
  5426.00    81.575
  5428.00    81.380
  5430.00    80.625
  5432.00    80.200
  5434.00    79.750
  5436.00    79.340
  5438.00    78.455
  5440.00    77.720
  5442.00    77.290
  5444.00    76.555
  5446.00    75.835
  5448.00    75.040
  5450.00    74.495
  5452.00    73.710
  5454.00    72.715
  5456.00    72.090
  5458.00    71.350
  5460.00    70.405
  5462.00    69.420
  5464.00    68.695
  5466.00    67.780
  5468.00    66.740
  5470.00    66.030
  5472.00    65.390
  5474.00    64.180
  5476.00    62.915
  5478.00    62.220
  5480.00    61.220
  5482.00    60.160
  5484.00    59.110
  5486.00    58.075
  5488.00    56.920
  5490.00    55.880
  5492.00    54.805
  5494.00    53.815
  5496.00    52.500
  5498.00    51.335
  5500.00    50.335
  5502.00    49.360
  5504.00    48.040
  5506.00    46.910
  5508.00    46.110
  5510.00    44.790
  5512.00    43.910
  5514.00    42.655
  5516.00    41.625
  5518.00    40.650
  5520.00    39.695
  5522.00    38.690
  5524.00    37.590
  5526.00    36.630
  5528.00    35.620
  5530.00    34.580
  5532.00    33.605
  5534.00    32.775
  5536.00    31.745
  5538.00    30.690
  5540.00    29.795
  5542.00    28.975
  5544.00    28.085
  5546.00    27.165
  5548.00    26.330
  5550.00    25.560
  5552.00    24.740
  5554.00    23.940
  5556.00    23.180
  5558.00    22.475
  5560.00    21.645
  5562.00    20.990
  5564.00    20.395
  5566.00    19.715
  5568.00    19.045
  5570.00    18.465
  5572.00    17.910
  5574.00    17.180
  5576.00    16.750
  5578.00    16.120
  5580.00    15.565
  5582.00    15.035
  5584.00    14.490
  5586.00    13.910
  5588.00    13.485
  5590.00    13.130
  5592.00    12.650
  5594.00    12.230
  5596.00    11.730
  5598.00    11.290
  5600.00    10.920
  5602.00    10.485
  5604.00    10.150
  5606.00     9.790
  5608.00     9.435
  5610.00     9.095
  5612.00     8.785
  5614.00     8.485
  5616.00     8.240
  5618.00     7.895
  5620.00     7.715
  5622.00     7.425
  5624.00     7.145
  5626.00     6.905
  5628.00     6.670
  5630.00     6.460
  5632.00     6.250
  5634.00     6.010
  5636.00     5.815
  5638.00     5.625
  5640.00     5.425
  5642.00     5.230
  5644.00     5.050
  5646.00     4.895
  5648.00     4.710
  5650.00     4.540
  5652.00     4.365
  5654.00     4.270
  5656.00     4.145
  5658.00     3.985
  5660.00     3.815
  5662.00     3.705
  5664.00     3.575
  5666.00     3.455
  5668.00     3.360
  5670.00     3.260
  5672.00     3.170
  5674.00     3.035
  5676.00     2.980
  5678.00     2.850
  5680.00     2.745
  5682.00     2.655
  5684.00     2.580
  5686.00     2.500
  5688.00     2.440
  5690.00     2.370
  5692.00     2.280
  5694.00     2.205
  5696.00     2.165
  5698.00     2.045
  5700.00     2.015
  5702.00     1.930
  5704.00     1.880
  5706.00     1.820
  5708.00     1.770
  5710.00     1.705
  5712.00     1.660
  5714.00     1.620
  5716.00     1.545
  5718.00     1.515
  5720.00     1.485
  5722.00     1.415
  5724.00     1.390
  5726.00     1.350
  5728.00     1.320
  5730.00     1.260
  5732.00     1.230
  5734.00     1.190
  5736.00     1.175
  5738.00     1.120
  5740.00     1.085
  5742.00     1.065
  5744.00     1.030
  5746.00     1.000
  5748.00     0.980
  5750.00     0.950
  5752.00     0.920
  5754.00     0.890
  5756.00     0.870
  5758.00     0.840
  5760.00     0.810
  5762.00     0.790
  5764.00     0.775
  5766.00     0.745
  5768.00     0.735
  5770.00     0.700
  5772.00     0.700
  5774.00     0.680
  5776.00     0.660
  5778.00     0.640
  5780.00     0.605
  5782.00     0.590
  5784.00     0.585
  5786.00     0.575
  5788.00     0.565
  5790.00     0.545
  5792.00     0.530
  5794.00     0.525
  5796.00     0.510
  5798.00     0.495
  5800.00     0.485
  5802.00     0.465
  5804.00     0.460
  5806.00     0.440
  5808.00     0.440
  5810.00     0.415
  5812.00     0.405
  5814.00     0.390
  5816.00     0.385
  5818.00     0.380
  5820.00     0.360
  5822.00     0.360
  5824.00     0.355
  5826.00     0.330
  5828.00     0.330
  5830.00     0.315
  5832.00     0.305
  5834.00     0.310
  5836.00     0.305
  5838.00     0.295
  5840.00     0.295
  5842.00     0.275
  5844.00     0.275
  5846.00     0.260
  5848.00     0.255
  5850.00     0.265
  5852.00     0.245
  5854.00     0.255
  5856.00     0.240
  5858.00     0.240
  5860.00     0.235
  5862.00     0.225
  5864.00     0.215
  5866.00     0.205
  5868.00     0.210
  5870.00     0.195
  5872.00     0.195
  5874.00     0.195
  5876.00     0.185
  5878.00     0.175
  5880.00     0.170
  5882.00     0.175
  5884.00     0.170
  5886.00     0.170
  5888.00     0.170
  5890.00     0.165
  5892.00     0.165
  5894.00     0.155
  5896.00     0.145
  5898.00     0.145
  5900.00     0.145
  5902.00     0.140
  5904.00     0.145
  5906.00     0.140
  5908.00     0.135
  5910.00     0.125
  5912.00     0.125
  5914.00     0.125
  5916.00     0.125
  5918.00     0.125
  5920.00     0.110
  5922.00     0.115
  5924.00     0.120
  5926.00     0.110
  5928.00     0.110
  5930.00     0.110
  5932.00     0.110
  5934.00     0.100
  5936.00     0.095
  5938.00     0.100
  5940.00     0.095
  5942.00     0.090
  5944.00     0.095
  5946.00     0.090
  5948.00     0.085
  5950.00     0.090
  5952.00     0.085
  5954.00     0.075
  5956.00     0.075
  5958.00     0.080
  5960.00     0.075
  5962.00     0.070
  5964.00     0.075
  5966.00     0.075
  5968.00     0.075
  5970.00     0.070
  5972.00     0.065
  5974.00     0.070
  5976.00     0.065
  5978.00     0.070
  5980.00     0.060
  5982.00     0.065
  5984.00     0.060
  5986.00     0.060
  5988.00     0.060
  5990.00     0.060
  5992.00     0.060
  5994.00     0.055
  5996.00     0.060
  5998.00     0.055
  6000.00     0.055
  6002.00     0.055
  6004.00     0.050
  6006.00     0.050
  6008.00     0.050
  6010.00     0.050
  6012.00     0.045
  6014.00     0.050
  6016.00     0.045
  6018.00     0.040
  6020.00     0.045
  6022.00     0.045
  6024.00     0.040
  6026.00     0.040
  6028.00     0.040
  6030.00     0.040
  6032.00     0.035
  6034.00     0.040
  6036.00     0.040
  6038.00     0.045
  6040.00     0.035
  6042.00     0.035
  6044.00     0.035
  6046.00     0.035
  6048.00     0.035
  6050.00     0.030
  6052.00     0.030
  6054.00     0.035
  6056.00     0.030
  6058.00     0.035
  6060.00     0.030
  6062.00     0.030
  6064.00     0.030
  6066.00     0.025
  6068.00     0.025
  6070.00     0.030
  6072.00     0.030
  6074.00     0.025
  6076.00     0.030
  6078.00     0.025
  6080.00     0.030
  6082.00     0.025
  6084.00     0.025
  6086.00     0.025
  6088.00     0.020
  6090.00     0.020
  6092.00     0.025
  6094.00     0.020
  6096.00     0.020
  6098.00     0.020
  6100.00     0.020
  6102.00     0.020
  6104.00     0.020
  6106.00     0.020
  6108.00     0.025
  6110.00     0.020
  6112.00     0.015
  6114.00     0.015
  6116.00     0.015
  6118.00     0.015
  6120.00     0.020
  6122.00     0.020
  6124.00     0.015
  6126.00     0.020
  6128.00     0.010
  6130.00     0.015
  6132.00     0.015
  6134.00     0.020
  6136.00     0.015
  6138.00     0.025
  6140.00     0.015
  6142.00     0.015
  6144.00     0.015
  6146.00     0.015
  6148.00     0.020
  6150.00     0.015

