#== Filter Data - Lambda 9 Spectrophotometer ==
#  Kitt Peak National Observatory - NOAO
#------------------------------------------------
#Filter: 0.2NM/30NMPERMIN/0.5S  520 TO 900NM
#Date: 07/14/03   Time: 12:52:12  Operator: hs
#cwl=  6172.62A  fwhm= 1300.45A  Tmax= 96.20% at  6436.00A
#Tcutoff=  2.00 %  Slitsize =  2 A
#fwhm spans 5522.39A to 6822.84A
#90%  spans 5687.53A to 6725.63A
#bw90 is  0.798; Tmin90/Tmax is  0.900
#No data smoothing
#
#Npts=  951     Disp=  4.00A/Interval
#*****
  5200.00     0.000
  5204.00     0.000
  5208.00     0.000
  5212.00     0.000
  5216.00     0.000
  5220.00    -0.005
  5224.00     0.000
  5228.00     0.000
  5232.00     0.000
  5236.00     0.000
  5240.00    -0.005
  5244.00     0.000
  5248.00     0.000
  5252.00     0.005
  5256.00     0.000
  5260.00     0.000
  5264.00     0.005
  5268.00     0.000
  5272.00     0.005
  5276.00     0.005
  5280.00     0.010
  5284.00     0.010
  5288.00     0.010
  5292.00     0.015
  5296.00     0.025
  5300.00     0.035
  5304.00     0.050
  5308.00     0.060
  5312.00     0.080
  5316.00     0.110
  5320.00     0.140
  5324.00     0.190
  5328.00     0.240
  5332.00     0.295
  5336.00     0.385
  5340.00     0.480
  5344.00     0.585
  5348.00     0.735
  5352.00     0.910
  5356.00     1.085
  5360.00     1.310
  5364.00     1.555
  5368.00     1.855
  5372.00     2.195
  5376.00     2.590
  5380.00     3.030
  5384.00     3.520
  5388.00     4.005
  5392.00     4.685
  5396.00     5.280
  5400.00     5.990
  5404.00     6.730
  5408.00     7.520
  5412.00     8.365
  5416.00     9.325
  5420.00    10.330
  5424.00    11.285
  5428.00    12.375
  5432.00    13.530
  5436.00    14.640
  5440.00    15.910
  5444.00    17.170
  5448.00    18.660
  5452.00    20.055
  5456.00    21.405
  5460.00    22.790
  5464.00    24.250
  5468.00    25.820
  5472.00    27.130
  5476.00    28.890
  5480.00    30.345
  5484.00    31.980
  5488.00    34.035
  5492.00    35.580
  5496.00    37.305
  5500.00    39.230
  5504.00    40.780
  5508.00    42.660
  5512.00    44.370
  5516.00    45.810
  5520.00    47.260
  5524.00    48.665
  5528.00    50.210
  5532.00    51.570
  5536.00    53.035
  5540.00    54.240
  5544.00    55.695
  5548.00    56.760
  5552.00    58.655
  5556.00    59.655
  5560.00    60.920
  5564.00    62.000
  5568.00    63.200
  5572.00    64.090
  5576.00    64.660
  5580.00    65.545
  5584.00    66.470
  5588.00    67.505
  5592.00    68.570
  5596.00    69.475
  5600.00    70.585
  5604.00    71.755
  5608.00    72.470
  5612.00    73.570
  5616.00    75.035
  5620.00    75.560
  5624.00    76.695
  5628.00    77.130
  5632.00    78.365
  5636.00    79.320
  5640.00    79.325
  5644.00    80.450
  5648.00    81.270
  5652.00    81.645
  5656.00    82.650
  5660.00    83.360
  5664.00    83.725
  5668.00    84.370
  5672.00    85.195
  5676.00    85.645
  5680.00    86.035
  5684.00    86.200
  5688.00    86.630
  5692.00    87.125
  5696.00    87.625
  5700.00    87.965
  5704.00    88.065
  5708.00    87.990
  5712.00    88.780
  5716.00    88.985
  5720.00    88.690
  5724.00    89.300
  5728.00    89.205
  5732.00    89.415
  5736.00    89.185
  5740.00    89.325
  5744.00    89.715
  5748.00    90.480
  5752.00    90.285
  5756.00    90.495
  5760.00    90.925
  5764.00    91.070
  5768.00    91.485
  5772.00    91.540
  5776.00    91.445
  5780.00    92.280
  5784.00    92.115
  5788.00    92.595
  5792.00    92.485
  5796.00    92.325
  5800.00    92.200
  5804.00    92.385
  5808.00    92.400
  5812.00    92.690
  5816.00    92.270
  5820.00    92.210
  5824.00    92.530
  5828.00    92.180
  5832.00    91.895
  5836.00    91.605
  5840.00    91.360
  5844.00    90.650
  5848.00    90.025
  5852.00    89.680
  5856.00    89.540
  5860.00    88.585
  5864.00    88.120
  5868.00    88.070
  5872.00    87.400
  5876.00    87.720
  5880.00    87.675
  5884.00    87.615
  5888.00    87.695
  5892.00    87.110
  5896.00    87.635
  5900.00    87.380
  5904.00    87.830
  5908.00    87.415
  5912.00    87.360
  5916.00    87.230
  5920.00    87.230
  5924.00    87.345
  5928.00    86.955
  5932.00    87.495
  5936.00    87.265
  5940.00    87.900
  5944.00    88.045
  5948.00    88.535
  5952.00    88.905
  5956.00    89.510
  5960.00    90.275
  5964.00    90.610
  5968.00    90.980
  5972.00    91.325
  5976.00    91.675
  5980.00    92.285
  5984.00    92.575
  5988.00    92.415
  5992.00    92.785
  5996.00    92.945
  6000.00    92.485
  6004.00    92.270
  6008.00    92.730
  6012.00    92.070
  6016.00    92.310
  6020.00    91.690
  6024.00    91.625
  6028.00    91.610
  6032.00    91.245
  6036.00    91.055
  6040.00    91.130
  6044.00    91.260
  6048.00    90.705
  6052.00    91.155
  6056.00    91.120
  6060.00    91.025
  6064.00    91.245
  6068.00    91.020
  6072.00    90.455
  6076.00    90.815
  6080.00    91.055
  6084.00    90.870
  6088.00    90.290
  6092.00    90.210
  6096.00    90.055
  6100.00    90.460
  6104.00    90.015
  6108.00    90.370
  6112.00    90.200
  6116.00    91.055
  6120.00    91.280
  6124.00    91.700
  6128.00    92.155
  6132.00    92.620
  6136.00    93.130
  6140.00    93.165
  6144.00    93.490
  6148.00    93.480
  6152.00    94.155
  6156.00    94.490
  6160.00    94.730
  6164.00    94.965
  6168.00    94.715
  6172.00    94.720
  6176.00    94.565
  6180.00    94.775
  6184.00    95.005
  6188.00    94.940
  6192.00    95.205
  6196.00    95.130
  6200.00    95.540
  6204.00    95.535
  6208.00    95.100
  6212.00    95.310
  6216.00    94.865
  6220.00    94.860
  6224.00    94.120
  6228.00    93.575
  6232.00    93.885
  6236.00    93.145
  6240.00    92.970
  6244.00    92.750
  6248.00    91.770
  6252.00    92.170
  6256.00    91.765
  6260.00    91.800
  6264.00    92.070
  6268.00    91.620
  6272.00    91.430
  6276.00    91.825
  6280.00    91.595
  6284.00    91.445
  6288.00    91.595
  6292.00    91.320
  6296.00    90.975
  6300.00    91.080
  6304.00    90.715
  6308.00    90.945
  6312.00    90.530
  6316.00    90.380
  6320.00    90.955
  6324.00    90.515
  6328.00    90.805
  6332.00    91.330
  6336.00    90.860
  6340.00    92.275
  6344.00    91.795
  6348.00    92.790
  6352.00    92.670
  6356.00    93.430
  6360.00    93.490
  6364.00    93.755
  6368.00    93.760
  6372.00    94.080
  6376.00    94.490
  6380.00    94.060
  6384.00    94.645
  6388.00    94.550
  6392.00    95.240
  6396.00    95.100
  6400.00    94.650
  6404.00    95.425
  6408.00    95.260
  6412.00    95.130
  6416.00    95.715
  6420.00    95.755
  6424.00    96.045
  6428.00    95.880
  6432.00    95.355
  6436.00    96.200
  6440.00    96.020
  6444.00    95.630
  6448.00    95.225
  6452.00    94.735
  6456.00    94.780
  6460.00    94.620
  6464.00    94.770
  6468.00    94.605
  6472.00    94.230
  6476.00    94.190
  6480.00    93.705
  6484.00    94.040
  6488.00    93.800
  6492.00    94.050
  6496.00    94.140
  6500.00    93.495
  6504.00    94.320
  6508.00    93.225
  6512.00    93.580
  6516.00    93.130
  6520.00    93.335
  6524.00    93.245
  6528.00    92.785
  6532.00    92.475
  6536.00    92.900
  6540.00    91.760
  6544.00    92.505
  6548.00    92.600
  6552.00    92.775
  6556.00    93.210
  6560.00    93.310
  6564.00    93.195
  6568.00    93.670
  6572.00    93.985
  6576.00    93.545
  6580.00    94.370
  6584.00    94.540
  6588.00    94.955
  6592.00    95.135
  6596.00    94.900
  6600.00    95.070
  6604.00    94.745
  6608.00    95.845
  6612.00    95.050
  6616.00    95.110
  6620.00    95.375
  6624.00    95.335
  6628.00    95.065
  6632.00    95.765
  6636.00    96.015
  6640.00    95.280
  6644.00    95.720
  6648.00    95.550
  6652.00    95.095
  6656.00    94.605
  6660.00    95.080
  6664.00    94.775
  6668.00    94.105
  6672.00    93.620
  6676.00    92.785
  6680.00    92.770
  6684.00    92.270
  6688.00    91.385
  6692.00    91.235
  6696.00    91.730
  6700.00    90.460
  6704.00    90.140
  6708.00    89.220
  6712.00    88.875
  6716.00    88.305
  6720.00    87.420
  6724.00    86.920
  6728.00    86.085
  6732.00    84.675
  6736.00    83.955
  6740.00    82.420
  6744.00    80.880
  6748.00    79.065
  6752.00    78.065
  6756.00    76.430
  6760.00    75.160
  6764.00    73.300
  6768.00    72.425
  6772.00    71.215
  6776.00    69.445
  6780.00    67.815
  6784.00    66.995
  6788.00    65.355
  6792.00    63.530
  6796.00    61.180
  6800.00    59.865
  6804.00    57.860
  6808.00    56.170
  6812.00    53.840
  6816.00    51.835
  6820.00    49.475
  6824.00    47.540
  6828.00    45.425
  6832.00    43.445
  6836.00    41.240
  6840.00    39.155
  6844.00    37.585
  6848.00    36.300
  6852.00    34.705
  6856.00    33.210
  6860.00    31.880
  6864.00    30.610
  6868.00    29.490
  6872.00    28.090
  6876.00    27.125
  6880.00    25.965
  6884.00    24.820
  6888.00    23.650
  6892.00    22.490
  6896.00    21.595
  6900.00    20.340
  6904.00    19.345
  6908.00    18.235
  6912.00    17.485
  6916.00    16.555
  6920.00    15.865
  6924.00    15.040
  6928.00    14.410
  6932.00    13.825
  6936.00    13.045
  6940.00    12.670
  6944.00    12.190
  6948.00    11.820
  6952.00    11.280
  6956.00    10.910
  6960.00    10.455
  6964.00    10.105
  6968.00     9.540
  6972.00     9.265
  6976.00     8.890
  6980.00     8.520
  6984.00     8.015
  6988.00     7.660
  6992.00     7.330
  6996.00     6.780
  7000.00     6.450
  7004.00     6.100
  7008.00     5.760
  7012.00     5.470
  7016.00     5.245
  7020.00     4.860
  7024.00     4.725
  7028.00     4.450
  7032.00     4.255
  7036.00     4.035
  7040.00     3.915
  7044.00     3.665
  7048.00     3.465
  7052.00     3.340
  7056.00     3.135
  7060.00     2.960
  7064.00     2.800
  7068.00     2.715
  7072.00     2.465
  7076.00     2.360
  7080.00     2.235
  7084.00     2.055
  7088.00     1.905
  7092.00     1.805
  7096.00     1.755
  7100.00     1.590
  7104.00     1.510
  7108.00     1.420
  7112.00     1.335
  7116.00     1.315
  7120.00     1.225
  7124.00     1.180
  7128.00     1.045
  7132.00     1.035
  7136.00     0.995
  7140.00     0.930
  7144.00     0.915
  7148.00     0.865
  7152.00     0.850
  7156.00     0.825
  7160.00     0.765
  7164.00     0.755
  7168.00     0.720
  7172.00     0.705
  7176.00     0.670
  7180.00     0.600
  7184.00     0.585
  7188.00     0.580
  7192.00     0.560
  7196.00     0.510
  7200.00     0.475
  7204.00     0.450
  7208.00     0.460
  7212.00     0.430
  7216.00     0.440
  7220.00     0.410
  7224.00     0.415
  7228.00     0.370
  7232.00     0.390
  7236.00     0.375
  7240.00     0.345
  7244.00     0.360
  7248.00     0.345
  7252.00     0.335
  7256.00     0.340
  7260.00     0.355
  7264.00     0.340
  7268.00     0.345
  7272.00     0.320
  7276.00     0.305
  7280.00     0.315
  7284.00     0.305
  7288.00     0.330
  7292.00     0.295
  7296.00     0.270
  7300.00     0.315
  7304.00     0.300
  7308.00     0.285
  7312.00     0.285
  7316.00     0.290
  7320.00     0.275
  7324.00     0.255
  7328.00     0.280
  7332.00     0.245
  7336.00     0.260
  7340.00     0.255
  7344.00     0.270
  7348.00     0.260
  7352.00     0.260
  7356.00     0.250
  7360.00     0.285
  7364.00     0.265
  7368.00     0.275
  7372.00     0.245
  7376.00     0.260
  7380.00     0.265
  7384.00     0.260
  7388.00     0.280
  7392.00     0.260
  7396.00     0.280
  7400.00     0.265
  7404.00     0.260
  7408.00     0.255
  7412.00     0.235
  7416.00     0.240
  7420.00     0.245
  7424.00     0.225
  7428.00     0.245
  7432.00     0.220
  7436.00     0.220
  7440.00     0.215
  7444.00     0.205
  7448.00     0.225
  7452.00     0.205
  7456.00     0.180
  7460.00     0.170
  7464.00     0.205
  7468.00     0.195
  7472.00     0.195
  7476.00     0.175
  7480.00     0.185
  7484.00     0.190
  7488.00     0.165
  7492.00     0.170
  7496.00     0.165
  7500.00     0.135
  7504.00     0.140
  7508.00     0.120
  7512.00     0.120
  7516.00     0.115
  7520.00     0.110
  7524.00     0.110
  7528.00     0.115
  7532.00     0.095
  7536.00     0.090
  7540.00     0.070
  7544.00     0.075
  7548.00     0.100
  7552.00     0.085
  7556.00     0.080
  7560.00     0.075
  7564.00     0.085
  7568.00     0.070
  7572.00     0.070
  7576.00     0.080
  7580.00     0.075
  7584.00     0.070
  7588.00     0.055
  7592.00     0.080
  7596.00     0.065
  7600.00     0.055
  7604.00     0.035
  7608.00     0.055
  7612.00     0.070
  7616.00     0.055
  7620.00     0.040
  7624.00     0.050
  7628.00     0.055
  7632.00     0.065
  7636.00     0.040
  7640.00     0.045
  7644.00     0.050
  7648.00     0.045
  7652.00     0.035
  7656.00     0.030
  7660.00     0.025
  7664.00     0.040
  7668.00     0.045
  7672.00     0.060
  7676.00     0.050
  7680.00     0.030
  7684.00     0.050
  7688.00     0.040
  7692.00     0.050
  7696.00     0.040
  7700.00     0.050
  7704.00     0.045
  7708.00     0.015
  7712.00     0.045
  7716.00     0.035
  7720.00     0.020
  7724.00     0.055
  7728.00     0.030
  7732.00     0.055
  7736.00     0.035
  7740.00     0.045
  7744.00     0.020
  7748.00     0.045
  7752.00     0.045
  7756.00     0.030
  7760.00     0.050
  7764.00     0.055
  7768.00     0.045
  7772.00     0.045
  7776.00     0.040
  7780.00     0.015
  7784.00     0.035
  7788.00     0.045
  7792.00     0.055
  7796.00     0.040
  7800.00     0.050
  7804.00     0.045
  7808.00     0.055
  7812.00     0.060
  7816.00     0.025
  7820.00     0.055
  7824.00     0.070
  7828.00     0.055
  7832.00     0.085
  7836.00     0.070
  7840.00     0.060
  7844.00     0.055
  7848.00     0.040
  7852.00     0.040
  7856.00     0.050
  7860.00     0.070
  7864.00     0.050
  7868.00     0.060
  7872.00     0.075
  7876.00     0.080
  7880.00     0.050
  7884.00     0.040
  7888.00     0.085
  7892.00     0.070
  7896.00     0.090
  7900.00     0.075
  7904.00     0.070
  7908.00     0.075
  7912.00     0.070
  7916.00     0.070
  7920.00     0.070
  7924.00     0.090
  7928.00     0.070
  7932.00     0.090
  7936.00     0.080
  7940.00     0.055
  7944.00     0.065
  7948.00     0.080
  7952.00     0.040
  7956.00     0.070
  7960.00     0.075
  7964.00     0.050
  7968.00     0.050
  7972.00     0.065
  7976.00     0.060
  7980.00     0.060
  7984.00     0.055
  7988.00     0.065
  7992.00     0.055
  7996.00     0.065
  8000.00     0.060
  8004.00     0.050
  8008.00     0.045
  8012.00     0.065
  8016.00     0.045
  8020.00     0.025
  8024.00     0.025
  8028.00     0.055
  8032.00     0.045
  8036.00     0.025
  8040.00     0.050
  8044.00     0.050
  8048.00     0.035
  8052.00     0.035
  8056.00     0.050
  8060.00     0.025
  8064.00     0.030
  8068.00     0.025
  8072.00     0.015
  8076.00     0.020
  8080.00     0.055
  8084.00     0.055
  8088.00     0.045
  8092.00     0.070
  8096.00     0.030
  8100.00     0.035
  8104.00     0.065
  8108.00     0.040
  8112.00     0.020
  8116.00     0.035
  8120.00     0.045
  8124.00     0.060
  8128.00     0.030
  8132.00     0.030
  8136.00     0.030
  8140.00     0.040
  8144.00     0.005
  8148.00     0.025
  8152.00     0.045
  8156.00     0.035
  8160.00     0.035
  8164.00     0.045
  8168.00     0.015
  8172.00     0.050
  8176.00     0.045
  8180.00     0.045
  8184.00     0.030
  8188.00     0.005
  8192.00     0.035
  8196.00    -0.030
  8200.00     0.075
  8204.00     0.015
  8208.00     0.020
  8212.00     0.005
  8216.00     0.045
  8220.00     0.070
  8224.00     0.035
  8228.00     0.030
  8232.00     0.070
  8236.00     0.010
  8240.00     0.070
  8244.00     0.035
  8248.00     0.050
  8252.00     0.005
  8256.00     0.095
  8260.00     0.085
  8264.00     0.030
  8268.00     0.070
  8272.00     0.015
  8276.00     0.045
  8280.00     0.040
  8284.00     0.075
  8288.00     0.030
  8292.00     0.115
  8296.00     0.045
  8300.00     0.055
  8304.00     0.020
  8308.00     0.050
  8312.00     0.060
  8316.00     0.040
  8320.00     0.125
  8324.00     0.050
  8328.00     0.035
  8332.00     0.040
  8336.00    -0.040
  8340.00     0.070
  8344.00     0.075
  8348.00     0.010
  8352.00     0.045
  8356.00     0.055
  8360.00     0.075
  8364.00     0.040
  8368.00     0.020
  8372.00     0.025
  8376.00     0.060
  8380.00     0.060
  8384.00     0.040
  8388.00    -0.010
  8392.00     0.020
  8396.00     0.010
  8400.00     0.025
  8404.00     0.015
  8408.00     0.070
  8412.00     0.055
  8416.00     0.015
  8420.00     0.045
  8424.00    -0.005
  8428.00     0.000
  8432.00     0.045
  8436.00     0.050
  8440.00     0.015
  8444.00     0.030
  8448.00     0.000
  8452.00    -0.005
  8456.00     0.010
  8460.00     0.005
  8464.00     0.070
  8468.00     0.020
  8472.00     0.020
  8476.00    -0.020
  8480.00     0.025
  8484.00     0.115
  8488.00    -0.045
  8492.00    -0.020
  8496.00    -0.005
  8500.00     0.030
  8504.00    -0.015
  8508.00     0.030
  8512.00    -0.015
  8516.00    -0.020
  8520.00    -0.035
  8524.00     0.050
  8528.00     0.030
  8532.00     0.070
  8536.00     0.040
  8540.00     0.080
  8544.00     0.150
  8548.00     0.050
  8552.00     0.005
  8556.00     0.025
  8560.00    -0.120
  8564.00    -0.020
  8568.00     0.035
  8572.00     0.050
  8576.00    -0.030
  8580.00    -0.020
  8584.00     0.010
  8588.00     0.185
  8592.00     0.210
  8596.00     0.055
  8600.00    -0.030
  8604.00    -0.015
  8608.00     0.040
  8612.00     0.030
  8616.00    -0.010
  8620.00     0.020
  8624.00     0.025
  8628.00     0.000
  8632.00     0.050
  8636.00     0.030
  8640.00     0.055
  8644.00     0.010
  8648.00     0.075
  8652.00    -0.040
  8656.00     0.030
  8660.00    -0.005
  8664.00     0.020
  8668.00    -0.010
  8672.00     0.025
  8676.00     0.065
  8680.00     0.040
  8684.00    -0.035
  8688.00     0.040
  8692.00     0.040
  8696.00     0.015
  8700.00     0.035
  8704.00    -0.010
  8708.00     0.000
  8712.00     0.020
  8716.00     0.010
  8720.00    -0.010
  8724.00     0.060
  8728.00    -0.035
  8732.00     0.040
  8736.00     0.060
  8740.00     0.075
  8744.00    -0.010
  8748.00     0.050
  8752.00     0.090
  8756.00     0.045
  8760.00     0.000
  8764.00     0.075
  8768.00     0.040
  8772.00     0.040
  8776.00     0.015
  8780.00     0.000
  8784.00    -0.005
  8788.00     0.030
  8792.00    -0.025
  8796.00    -0.020
  8800.00     0.065
  8804.00     0.035
  8808.00     0.025
  8812.00    -0.035
  8816.00     0.030
  8820.00     0.005
  8824.00     0.035
  8828.00     0.055
  8832.00    -0.020
  8836.00     0.075
  8840.00     0.030
  8844.00     0.015
  8848.00     0.030
  8852.00     0.010
  8856.00     0.000
  8860.00     0.035
  8864.00     0.020
  8868.00     0.025
  8872.00     0.020
  8876.00    -0.005
  8880.00     0.065
  8884.00     0.025
  8888.00     0.060
  8892.00    -0.020
  8896.00     0.080
  8900.00     0.015
  8904.00     0.045
  8908.00     0.085
  8912.00     0.010
  8916.00     0.070
  8920.00     0.040
  8924.00     0.095
  8928.00     0.000
  8932.00     0.095
  8936.00     0.050
  8940.00     0.060
  8944.00     0.070
  8948.00    -0.010
  8952.00    -0.010
  8956.00    -0.020
  8960.00    -0.005
  8964.00     0.020
  8968.00     0.025
  8972.00     0.005
  8976.00    -0.020
  8980.00    -0.010
  8984.00     0.050
  8988.00     0.055
  8992.00     0.050
  8996.00     0.060
  9000.00    -0.050

