#== Filter Data - Lambda 9 Spectrophotometer ==
#  Kitt Peak National Observatory - NOAO
#------------------------------------------------
#Filter: 1NM/120NMPERMIN/0.5S   300 TO 1200NM
#Date: 07/14/03   Time: 10:59:27  Operator: HS
#cwl=  6168.28A  fwhm= 1303.51A  Tmax= 95.62% at  6430.00A
#Tcutoff=  2.00 %  Slitsize = 10 A
#fwhm spans 5516.53A to 6820.04A
#90%  spans 5676.38A to 6721.85A
#bw90 is  0.802; Tmin90/Tmax is  0.900
#No data smoothing
#
#Npts=  901     Disp= 10.00A/Interval
#*****
  3000.00    -0.005
  3010.00    -0.005
  3020.00    -0.005
  3030.00    -0.005
  3040.00    -0.005
  3050.00    -0.005
  3060.00    -0.005
  3070.00    -0.005
  3080.00    -0.005
  3090.00    -0.005
  3100.00    -0.005
  3110.00    -0.005
  3120.00    -0.005
  3130.00    -0.005
  3140.00    -0.005
  3150.00    -0.005
  3160.00    -0.005
  3170.00     0.000
  3180.00    -0.010
  3190.00    -0.020
  3200.00    -0.005
  3210.00    -0.005
  3220.00     0.000
  3230.00    -0.005
  3240.00    -0.005
  3250.00    -0.005
  3260.00    -0.005
  3270.00    -0.005
  3280.00    -0.005
  3290.00    -0.005
  3300.00    -0.005
  3310.00    -0.005
  3320.00    -0.005
  3330.00    -0.005
  3340.00    -0.005
  3350.00    -0.005
  3360.00    -0.005
  3370.00    -0.005
  3380.00    -0.005
  3390.00    -0.005
  3400.00    -0.005
  3410.00    -0.005
  3420.00     0.000
  3430.00    -0.005
  3440.00    -0.005
  3450.00    -0.005
  3460.00     0.000
  3470.00    -0.005
  3480.00     0.000
  3490.00    -0.005
  3500.00     0.000
  3510.00     0.000
  3520.00    -0.005
  3530.00     0.000
  3540.00    -0.005
  3550.00     0.000
  3560.00     0.000
  3570.00    -0.005
  3580.00    -0.005
  3590.00    -0.005
  3600.00     0.000
  3610.00    -0.005
  3620.00    -0.005
  3630.00    -0.005
  3640.00     0.000
  3650.00    -0.005
  3660.00    -0.005
  3670.00     0.000
  3680.00    -0.005
  3690.00     0.000
  3700.00     0.000
  3710.00    -0.005
  3720.00    -0.005
  3730.00     0.000
  3740.00     0.000
  3750.00     0.000
  3760.00    -0.005
  3770.00    -0.005
  3780.00    -0.010
  3790.00     0.000
  3800.00    -0.005
  3810.00    -0.005
  3820.00     0.000
  3830.00    -0.005
  3840.00    -0.005
  3850.00    -0.005
  3860.00    -0.005
  3870.00    -0.005
  3880.00     0.000
  3890.00    -0.005
  3900.00    -0.005
  3910.00     0.000
  3920.00    -0.005
  3930.00     0.000
  3940.00    -0.005
  3950.00     0.000
  3960.00    -0.005
  3970.00     0.000
  3980.00     0.000
  3990.00     0.000
  4000.00     0.000
  4010.00     0.000
  4020.00     0.000
  4030.00     0.000
  4040.00    -0.005
  4050.00     0.000
  4060.00     0.000
  4070.00     0.000
  4080.00    -0.005
  4090.00    -0.005
  4100.00     0.000
  4110.00     0.000
  4120.00    -0.005
  4130.00     0.000
  4140.00     0.000
  4150.00    -0.005
  4160.00    -0.005
  4170.00    -0.005
  4180.00    -0.005
  4190.00    -0.005
  4200.00    -0.005
  4210.00    -0.005
  4220.00     0.000
  4230.00     0.000
  4240.00    -0.005
  4250.00    -0.005
  4260.00    -0.005
  4270.00    -0.005
  4280.00     0.000
  4290.00    -0.005
  4300.00    -0.005
  4310.00    -0.005
  4320.00     0.000
  4330.00    -0.005
  4340.00    -0.005
  4350.00    -0.005
  4360.00    -0.005
  4370.00    -0.005
  4380.00    -0.005
  4390.00    -0.005
  4400.00     0.000
  4410.00    -0.005
  4420.00    -0.005
  4430.00    -0.005
  4440.00    -0.005
  4450.00     0.000
  4460.00    -0.005
  4470.00    -0.005
  4480.00     0.000
  4490.00     0.000
  4500.00    -0.005
  4510.00     0.000
  4520.00    -0.005
  4530.00    -0.005
  4540.00     0.000
  4550.00    -0.005
  4560.00    -0.005
  4570.00     0.000
  4580.00     0.000
  4590.00    -0.005
  4600.00    -0.005
  4610.00     0.000
  4620.00     0.000
  4630.00     0.000
  4640.00    -0.005
  4650.00    -0.005
  4660.00     0.000
  4670.00     0.000
  4680.00     0.000
  4690.00    -0.005
  4700.00    -0.005
  4710.00    -0.005
  4720.00     0.000
  4730.00     0.000
  4740.00    -0.005
  4750.00    -0.005
  4760.00     0.000
  4770.00     0.000
  4780.00     0.000
  4790.00     0.000
  4800.00    -0.005
  4810.00    -0.005
  4820.00     0.000
  4830.00    -0.005
  4840.00     0.000
  4850.00    -0.005
  4860.00    -0.005
  4870.00    -0.005
  4880.00    -0.005
  4890.00    -0.005
  4900.00    -0.005
  4910.00    -0.005
  4920.00     0.000
  4930.00     0.000
  4940.00     0.000
  4950.00    -0.005
  4960.00     0.000
  4970.00    -0.005
  4980.00    -0.005
  4990.00     0.000
  5000.00    -0.005
  5010.00    -0.005
  5020.00     0.000
  5030.00    -0.005
  5040.00    -0.005
  5050.00     0.000
  5060.00     0.000
  5070.00     0.000
  5080.00    -0.005
  5090.00     0.000
  5100.00     0.000
  5110.00    -0.005
  5120.00     0.000
  5130.00    -0.005
  5140.00     0.000
  5150.00    -0.005
  5160.00    -0.005
  5170.00    -0.005
  5180.00     0.000
  5190.00     0.000
  5200.00    -0.005
  5210.00    -0.005
  5220.00    -0.005
  5230.00    -0.005
  5240.00    -0.005
  5250.00     0.000
  5260.00     0.000
  5270.00     0.005
  5280.00     0.010
  5290.00     0.025
  5300.00     0.045
  5310.00     0.105
  5320.00     0.200
  5330.00     0.365
  5340.00     0.630
  5350.00     1.045
  5360.00     1.660
  5370.00     2.535
  5380.00     3.675
  5390.00     5.150
  5400.00     6.960
  5410.00     9.085
  5420.00    11.555
  5430.00    14.370
  5440.00    17.510
  5450.00    21.005
  5460.00    24.715
  5470.00    28.555
  5480.00    32.525
  5490.00    36.775
  5500.00    41.140
  5510.00    45.310
  5520.00    49.140
  5530.00    52.605
  5540.00    55.890
  5550.00    59.100
  5560.00    62.130
  5570.00    64.705
  5580.00    66.890
  5590.00    69.175
  5600.00    71.575
  5610.00    74.160
  5620.00    76.640
  5630.00    78.835
  5640.00    80.745
  5650.00    82.415
  5660.00    83.930
  5670.00    85.340
  5680.00    86.465
  5690.00    87.255
  5700.00    87.995
  5710.00    88.610
  5720.00    89.145
  5730.00    89.590
  5740.00    89.900
  5750.00    90.390
  5760.00    91.110
  5770.00    91.810
  5780.00    92.370
  5790.00    92.490
  5800.00    92.380
  5810.00    92.220
  5820.00    92.095
  5830.00    91.695
  5840.00    90.945
  5850.00    89.675
  5860.00    88.465
  5870.00    87.475
  5880.00    87.115
  5890.00    87.200
  5900.00    87.355
  5910.00    87.490
  5920.00    87.445
  5930.00    87.500
  5940.00    88.025
  5950.00    88.900
  5960.00    90.110
  5970.00    91.220
  5980.00    92.100
  5990.00    92.425
  6000.00    92.540
  6010.00    92.205
  6020.00    91.775
  6030.00    91.235
  6040.00    90.805
  6050.00    90.665
  6060.00    90.620
  6070.00    90.710
  6080.00    90.690
  6090.00    90.555
  6100.00    90.380
  6110.00    90.660
  6120.00    91.355
  6130.00    92.355
  6140.00    93.400
  6150.00    94.270
  6160.00    94.755
  6170.00    94.955
  6180.00    94.950
  6190.00    95.090
  6200.00    95.130
  6210.00    94.990
  6220.00    94.440
  6230.00    93.625
  6240.00    92.580
  6250.00    91.805
  6260.00    91.320
  6270.00    91.345
  6280.00    91.345
  6290.00    91.205
  6300.00    91.075
  6310.00    90.850
  6320.00    90.805
  6330.00    91.100
  6340.00    91.940
  6350.00    92.865
  6360.00    93.695
  6370.00    94.295
  6380.00    94.655
  6390.00    94.850
  6400.00    95.065
  6410.00    95.300
  6420.00    95.505
  6430.00    95.620
  6440.00    95.455
  6450.00    95.040
  6460.00    94.405
  6470.00    93.910
  6480.00    93.570
  6490.00    93.555
  6500.00    93.500
  6510.00    93.470
  6520.00    93.230
  6530.00    92.925
  6540.00    92.730
  6550.00    92.800
  6560.00    93.140
  6570.00    93.665
  6580.00    94.210
  6590.00    94.815
  6600.00    95.100
  6610.00    95.225
  6620.00    95.345
  6630.00    95.420
  6640.00    95.280
  6650.00    95.075
  6660.00    94.605
  6670.00    93.485
  6680.00    92.090
  6690.00    90.755
  6700.00    89.450
  6710.00    88.130
  6720.00    86.470
  6730.00    84.245
  6740.00    81.180
  6750.00    77.505
  6760.00    73.570
  6770.00    69.770
  6780.00    66.135
  6790.00    62.300
  6800.00    58.020
  6810.00    53.200
  6820.00    47.830
  6830.00    42.660
  6840.00    37.845
  6850.00    33.690
  6860.00    30.310
  6870.00    27.325
  6880.00    24.640
  6890.00    22.030
  6900.00    19.495
  6910.00    17.190
  6920.00    15.155
  6930.00    13.445
  6940.00    12.080
  6950.00    10.950
  6960.00     9.970
  6970.00     9.020
  6980.00     8.085
  6990.00     7.115
  7000.00     6.205
  7010.00     5.400
  7020.00     4.695
  7030.00     4.105
  7040.00     3.620
  7050.00     3.195
  7060.00     2.805
  7070.00     2.440
  7080.00     2.105
  7090.00     1.800
  7100.00     1.540
  7110.00     1.325
  7120.00     1.150
  7130.00     1.010
  7140.00     0.910
  7150.00     0.820
  7160.00     0.745
  7170.00     0.665
  7180.00     0.600
  7190.00     0.540
  7200.00     0.485
  7210.00     0.440
  7220.00     0.405
  7230.00     0.375
  7240.00     0.355
  7250.00     0.340
  7260.00     0.325
  7270.00     0.315
  7280.00     0.305
  7290.00     0.295
  7300.00     0.285
  7310.00     0.275
  7320.00     0.265
  7330.00     0.260
  7340.00     0.255
  7350.00     0.255
  7360.00     0.260
  7370.00     0.260
  7380.00     0.255
  7390.00     0.260
  7400.00     0.250
  7410.00     0.245
  7420.00     0.235
  7430.00     0.220
  7440.00     0.210
  7450.00     0.200
  7460.00     0.190
  7470.00     0.175
  7480.00     0.165
  7490.00     0.150
  7500.00     0.140
  7510.00     0.125
  7520.00     0.110
  7530.00     0.095
  7540.00     0.085
  7550.00     0.080
  7560.00     0.070
  7570.00     0.065
  7580.00     0.060
  7590.00     0.055
  7600.00     0.055
  7610.00     0.050
  7620.00     0.045
  7630.00     0.045
  7640.00     0.040
  7650.00     0.040
  7660.00     0.035
  7670.00     0.035
  7680.00     0.035
  7690.00     0.030
  7700.00     0.030
  7710.00     0.035
  7720.00     0.030
  7730.00     0.035
  7740.00     0.035
  7750.00     0.035
  7760.00     0.035
  7770.00     0.035
  7780.00     0.035
  7790.00     0.040
  7800.00     0.040
  7810.00     0.040
  7820.00     0.045
  7830.00     0.045
  7840.00     0.050
  7850.00     0.050
  7860.00     0.055
  7870.00     0.055
  7880.00     0.055
  7890.00     0.060
  7900.00     0.055
  7910.00     0.055
  7920.00     0.055
  7930.00     0.060
  7940.00     0.055
  7950.00     0.060
  7960.00     0.050
  7970.00     0.050
  7980.00     0.045
  7990.00     0.040
  8000.00     0.040
  8010.00     0.035
  8020.00     0.030
  8030.00     0.030
  8040.00     0.030
  8050.00     0.025
  8060.00     0.025
  8070.00     0.025
  8080.00     0.030
  8090.00     0.020
  8100.00     0.020
  8110.00     0.025
  8120.00     0.020
  8130.00     0.020
  8140.00     0.020
  8150.00     0.020
  8160.00     0.020
  8170.00     0.025
  8180.00     0.025
  8190.00     0.025
  8200.00     0.025
  8210.00     0.030
  8220.00     0.030
  8230.00     0.035
  8240.00     0.040
  8250.00     0.040
  8260.00     0.040
  8270.00     0.045
  8280.00     0.060
  8290.00     0.060
  8300.00     0.065
  8310.00     0.070
  8320.00     0.065
  8330.00     0.060
  8340.00     0.055
  8350.00     0.045
  8360.00     0.040
  8370.00     0.025
  8380.00     0.020
  8390.00     0.020
  8400.00     0.010
  8410.00     0.015
  8420.00     0.010
  8430.00     0.015
  8440.00     0.010
  8450.00     0.010
  8460.00     0.010
  8470.00     0.005
  8480.00     0.005
  8490.00     0.005
  8500.00     0.005
  8510.00     0.005
  8520.00     0.000
  8530.00     0.010
  8540.00     0.005
  8550.00     0.005
  8560.00     0.010
  8570.00     0.005
  8580.00     0.000
  8590.00     0.000
  8600.00     0.005
  8610.00     0.060
  8620.00     0.065
  8630.00     0.015
  8640.00     0.085
  8650.00     0.025
  8660.00     0.030
  8670.00     0.055
  8680.00     0.040
  8690.00     0.030
  8700.00     0.030
  8710.00     0.015
  8720.00     0.000
  8730.00    -0.015
  8740.00    -0.005
  8750.00     0.055
  8760.00     0.015
  8770.00     0.055
  8780.00    -0.010
  8790.00     0.015
  8800.00     0.060
  8810.00     0.055
  8820.00     0.010
  8830.00     0.000
  8840.00     0.050
  8850.00     0.000
  8860.00     0.040
  8870.00     0.035
  8880.00    -0.015
  8890.00     0.020
  8900.00     0.040
  8910.00     0.025
  8920.00     0.020
  8930.00    -0.010
  8940.00     0.075
  8950.00     0.055
  8960.00     0.020
  8970.00     0.035
  8980.00     0.010
  8990.00     0.025
  9000.00     0.025
  9010.00    -0.015
  9020.00     0.005
  9030.00     0.010
  9040.00    -0.030
  9050.00     0.015
  9060.00     0.015
  9070.00     0.005
  9080.00    -0.010
  9090.00    -0.010
  9100.00    -0.015
  9110.00     0.020
  9120.00     0.040
  9130.00     0.035
  9140.00     0.000
  9150.00     0.025
  9160.00     0.065
  9170.00     0.040
  9180.00     0.020
  9190.00    -0.010
  9200.00    -0.005
  9210.00     0.045
  9220.00     0.055
  9230.00     0.050
  9240.00     0.030
  9250.00     0.030
  9260.00    -0.005
  9270.00     0.070
  9280.00     0.030
  9290.00     0.020
  9300.00    -0.015
  9310.00     0.045
  9320.00     0.030
  9330.00     0.080
  9340.00     0.025
  9350.00     0.075
  9360.00     0.100
  9370.00     0.145
  9380.00     0.145
  9390.00     0.120
  9400.00     0.125
  9410.00     0.125
  9420.00     0.155
  9430.00     0.065
  9440.00     0.070
  9450.00     0.020
  9460.00     0.050
  9470.00     0.070
  9480.00     0.065
  9490.00     0.060
  9500.00     0.035
  9510.00     0.060
  9520.00     0.020
  9530.00     0.080
  9540.00     0.105
  9550.00     0.020
  9560.00     0.060
  9570.00     0.065
  9580.00     0.060
  9590.00     0.065
  9600.00     0.005
  9610.00    -0.020
  9620.00     0.050
  9630.00    -0.010
  9640.00     0.005
  9650.00    -0.010
  9660.00    -0.020
  9670.00     0.035
  9680.00     0.050
  9690.00     0.020
  9700.00     0.005
  9710.00     0.000
  9720.00     0.015
  9730.00     0.045
  9740.00    -0.045
  9750.00     0.015
  9760.00     0.030
  9770.00     0.050
  9780.00    -0.030
  9790.00    -0.025
  9800.00    -0.005
  9810.00     0.075
  9820.00     0.015
  9830.00    -0.025
  9840.00     0.055
  9850.00     0.010
  9860.00     0.035
  9870.00     0.080
  9880.00     0.045
  9890.00     0.060
  9900.00     0.050
  9910.00     0.010
  9920.00     0.015
  9930.00     0.070
  9940.00     0.050
  9950.00     0.075
  9960.00     0.050
  9970.00     0.080
  9980.00     0.105
  9990.00     0.070
 10000.00     0.035
 10010.00     0.095
 10020.00     0.110
 10030.00     0.080
 10040.00     0.130
 10050.00     0.120
 10060.00     0.070
 10070.00     0.160
 10080.00     0.145
 10090.00     0.170
 10100.00     0.235
 10110.00     0.255
 10120.00     0.190
 10130.00     0.270
 10140.00     0.265
 10150.00     0.275
 10160.00     0.290
 10170.00     0.270
 10180.00     0.245
 10190.00     0.265
 10200.00     0.185
 10210.00     0.195
 10220.00     0.170
 10230.00     0.250
 10240.00     0.210
 10250.00     0.225
 10260.00     0.230
 10270.00     0.215
 10280.00     0.220
 10290.00     0.150
 10300.00     0.070
 10310.00     0.150
 10320.00     0.155
 10330.00     0.100
 10340.00     0.120
 10350.00     0.065
 10360.00     0.110
 10370.00     0.085
 10380.00     0.120
 10390.00     0.160
 10400.00     0.095
 10410.00     0.090
 10420.00     0.100
 10430.00     0.130
 10440.00     0.115
 10450.00     0.060
 10460.00     0.120
 10470.00     0.095
 10480.00     0.115
 10490.00     0.090
 10500.00     0.125
 10510.00     0.100
 10520.00     0.115
 10530.00     0.105
 10540.00     0.100
 10550.00     0.080
 10560.00     0.130
 10570.00     0.150
 10580.00     0.065
 10590.00     0.175
 10600.00     0.160
 10610.00     0.165
 10620.00     0.155
 10630.00     0.160
 10640.00     0.160
 10650.00     0.200
 10660.00     0.215
 10670.00     0.160
 10680.00     0.160
 10690.00     0.180
 10700.00     0.235
 10710.00     0.220
 10720.00     0.225
 10730.00     0.205
 10740.00     0.220
 10750.00     0.265
 10760.00     0.265
 10770.00     0.375
 10780.00     0.370
 10790.00     0.410
 10800.00     0.380
 10810.00     0.415
 10820.00     0.435
 10830.00     0.570
 10840.00     0.585
 10850.00     0.605
 10860.00     0.640
 10870.00     0.780
 10880.00     0.880
 10890.00     0.900
 10900.00     1.050
 10910.00     1.135
 10920.00     1.195
 10930.00     1.370
 10940.00     1.535
 10950.00     1.705
 10960.00     1.920
 10970.00     2.075
 10980.00     2.330
 10990.00     2.640
 11000.00     2.875
 11010.00     3.260
 11020.00     3.625
 11030.00     3.945
 11040.00     4.360
 11050.00     4.780
 11060.00     5.215
 11070.00     5.655
 11080.00     6.005
 11090.00     6.445
 11100.00     6.840
 11110.00     7.090
 11120.00     7.380
 11130.00     7.635
 11140.00     7.770
 11150.00     7.960
 11160.00     8.015
 11170.00     8.070
 11180.00     8.010
 11190.00     7.980
 11200.00     7.990
 11210.00     7.995
 11220.00     7.915
 11230.00     7.870
 11240.00     7.915
 11250.00     7.845
 11260.00     7.750
 11270.00     7.920
 11280.00     7.865
 11290.00     7.965
 11300.00     7.995
 11310.00     8.110
 11320.00     8.155
 11330.00     8.255
 11340.00     8.370
 11350.00     8.550
 11360.00     8.940
 11370.00     9.330
 11380.00     9.740
 11390.00    10.155
 11400.00    10.665
 11410.00    11.185
 11420.00    11.825
 11430.00    12.470
 11440.00    13.210
 11450.00    14.125
 11460.00    15.220
 11470.00    16.245
 11480.00    17.450
 11490.00    18.715
 11500.00    20.170
 11510.00    21.875
 11520.00    23.655
 11530.00    25.510
 11540.00    27.635
 11550.00    29.880
 11560.00    32.425
 11570.00    35.080
 11580.00    37.990
 11590.00    41.055
 11600.00    44.380
 11610.00    47.780
 11620.00    51.345
 11630.00    55.030
 11640.00    58.580
 11650.00    62.035
 11660.00    65.115
 11670.00    67.775
 11680.00    69.840
 11690.00    71.300
 11700.00    72.130
 11710.00    72.165
 11720.00    71.725
 11730.00    70.705
 11740.00    69.295
 11750.00    67.555
 11760.00    65.555
 11770.00    63.535
 11780.00    61.465
 11790.00    59.500
 11800.00    57.535
 11810.00    55.715
 11820.00    54.030
 11830.00    52.525
 11840.00    51.175
 11850.00    49.905
 11860.00    48.785
 11870.00    47.685
 11880.00    46.745
 11890.00    45.895
 11900.00    45.135
 11910.00    44.700
 11920.00    44.150
 11930.00    43.750
 11940.00    43.250
 11950.00    42.950
 11960.00    42.745
 11970.00    42.595
 11980.00    42.475
 11990.00    42.455
 12000.00    42.445

