#== Filter Data - Lambda 9 Spectrophotometer ==
#  Kitt Peak National Observatory - NOAO
#------------------------------------------------
#Filter: 0.2NM/30NMPERMIN/0.5S  660 TO 900NM
#Date: 07/14/03   Time: 12:52:21  Operator: hs
#cwl=  7685.58A  fwhm= 1258.74A  Tmax= 98.90% at  8068.00A
#Tcutoff=  2.00 %  Slitsize =  2 A
#fwhm spans 7056.21A to 8314.95A
#90%  spans 7299.30A to 8176.48A
#bw90 is  0.697; Tmin90/Tmax is  0.885
#No data smoothing
#
#Npts=  601     Disp=  4.00A/Interval
#*****
  6600.00    -0.005
  6604.00     0.000
  6608.00     0.000
  6612.00     0.000
  6616.00     0.000
  6620.00     0.000
  6624.00     0.000
  6628.00     0.000
  6632.00     0.000
  6636.00     0.000
  6640.00     0.000
  6644.00     0.000
  6648.00     0.005
  6652.00    -0.005
  6656.00    -0.005
  6660.00     0.000
  6664.00     0.000
  6668.00     0.000
  6672.00    -0.005
  6676.00     0.000
  6680.00     0.000
  6684.00     0.000
  6688.00     0.000
  6692.00     0.000
  6696.00     0.000
  6700.00     0.000
  6704.00     0.005
  6708.00     0.000
  6712.00     0.005
  6716.00     0.000
  6720.00     0.000
  6724.00     0.005
  6728.00     0.005
  6732.00     0.005
  6736.00     0.005
  6740.00     0.010
  6744.00     0.015
  6748.00     0.010
  6752.00     0.020
  6756.00     0.020
  6760.00     0.030
  6764.00     0.030
  6768.00     0.035
  6772.00     0.045
  6776.00     0.065
  6780.00     0.070
  6784.00     0.080
  6788.00     0.100
  6792.00     0.110
  6796.00     0.130
  6800.00     0.165
  6804.00     0.195
  6808.00     0.235
  6812.00     0.270
  6816.00     0.330
  6820.00     0.370
  6824.00     0.440
  6828.00     0.495
  6832.00     0.600
  6836.00     0.710
  6840.00     0.820
  6844.00     0.905
  6848.00     1.080
  6852.00     1.240
  6856.00     1.400
  6860.00     1.610
  6864.00     1.845
  6868.00     2.055
  6872.00     2.300
  6876.00     2.620
  6880.00     2.945
  6884.00     3.370
  6888.00     3.705
  6892.00     4.175
  6896.00     4.655
  6900.00     5.195
  6904.00     5.790
  6908.00     6.335
  6912.00     6.915
  6916.00     7.655
  6920.00     8.330
  6924.00     9.175
  6928.00     9.920
  6932.00    10.875
  6936.00    11.835
  6940.00    12.640
  6944.00    13.685
  6948.00    14.830
  6952.00    15.710
  6956.00    16.910
  6960.00    18.170
  6964.00    19.210
  6968.00    20.140
  6972.00    21.635
  6976.00    22.865
  6980.00    24.135
  6984.00    25.250
  6988.00    26.605
  6992.00    28.060
  6996.00    29.605
  7000.00    30.760
  7004.00    32.265
  7008.00    33.405
  7012.00    35.195
  7016.00    36.165
  7020.00    37.790
  7024.00    39.160
  7028.00    40.440
  7032.00    41.620
  7036.00    43.380
  7040.00    44.805
  7044.00    45.985
  7048.00    47.415
  7052.00    48.680
  7056.00    49.375
  7060.00    50.830
  7064.00    51.860
  7068.00    53.165
  7072.00    54.125
  7076.00    55.665
  7080.00    56.645
  7084.00    58.105
  7088.00    58.620
  7092.00    59.915
  7096.00    60.580
  7100.00    61.465
  7104.00    62.530
  7108.00    63.930
  7112.00    65.245
  7116.00    65.560
  7120.00    66.375
  7124.00    67.550
  7128.00    68.415
  7132.00    68.725
  7136.00    69.495
  7140.00    70.280
  7144.00    70.725
  7148.00    71.275
  7152.00    72.060
  7156.00    73.200
  7160.00    72.910
  7164.00    74.160
  7168.00    74.740
  7172.00    74.810
  7176.00    76.065
  7180.00    76.680
  7184.00    76.390
  7188.00    76.740
  7192.00    78.025
  7196.00    78.390
  7200.00    79.580
  7204.00    79.655
  7208.00    79.965
  7212.00    79.875
  7216.00    81.255
  7220.00    80.550
  7224.00    80.935
  7228.00    82.555
  7232.00    82.425
  7236.00    82.460
  7240.00    82.715
  7244.00    82.775
  7248.00    84.175
  7252.00    84.600
  7256.00    84.475
  7260.00    85.600
  7264.00    85.775
  7268.00    86.655
  7272.00    86.295
  7276.00    86.490
  7280.00    86.215
  7284.00    86.910
  7288.00    87.655
  7292.00    87.450
  7296.00    87.730
  7300.00    89.280
  7304.00    89.310
  7308.00    88.190
  7312.00    89.045
  7316.00    90.810
  7320.00    89.825
  7324.00    90.300
  7328.00    90.805
  7332.00    91.835
  7336.00    90.620
  7340.00    91.335
  7344.00    91.950
  7348.00    91.555
  7352.00    92.515
  7356.00    93.130
  7360.00    93.860
  7364.00    92.655
  7368.00    93.425
  7372.00    93.250
  7376.00    93.965
  7380.00    93.690
  7384.00    93.685
  7388.00    94.315
  7392.00    94.835
  7396.00    94.355
  7400.00    95.135
  7404.00    95.865
  7408.00    95.545
  7412.00    95.650
  7416.00    95.865
  7420.00    95.410
  7424.00    95.890
  7428.00    95.180
  7432.00    96.170
  7436.00    95.375
  7440.00    97.135
  7444.00    96.730
  7448.00    96.110
  7452.00    96.785
  7456.00    97.365
  7460.00    97.215
  7464.00    96.975
  7468.00    96.665
  7472.00    97.175
  7476.00    96.235
  7480.00    97.005
  7484.00    97.720
  7488.00    96.445
  7492.00    97.655
  7496.00    96.885
  7500.00    97.720
  7504.00    97.100
  7508.00    96.955
  7512.00    97.125
  7516.00    97.780
  7520.00    96.100
  7524.00    96.345
  7528.00    98.285
  7532.00    95.200
  7536.00    96.095
  7540.00    96.850
  7544.00    96.545
  7548.00    96.825
  7552.00    96.635
  7556.00    96.425
  7560.00    95.640
  7564.00    96.015
  7568.00    95.320
  7572.00    95.950
  7576.00    95.825
  7580.00    96.000
  7584.00    94.845
  7588.00    95.930
  7592.00    96.390
  7596.00    95.735
  7600.00    96.020
  7604.00    95.965
  7608.00    96.675
  7612.00    96.910
  7616.00    95.725
  7620.00    95.270
  7624.00    94.945
  7628.00    94.795
  7632.00    95.040
  7636.00    94.735
  7640.00    94.090
  7644.00    95.665
  7648.00    94.835
  7652.00    94.755
  7656.00    95.430
  7660.00    95.200
  7664.00    94.125
  7668.00    94.665
  7672.00    93.740
  7676.00    94.255
  7680.00    94.365
  7684.00    94.675
  7688.00    94.740
  7692.00    94.440
  7696.00    93.085
  7700.00    94.505
  7704.00    94.520
  7708.00    92.990
  7712.00    95.345
  7716.00    92.915
  7720.00    92.040
  7724.00    93.105
  7728.00    93.585
  7732.00    93.580
  7736.00    94.175
  7740.00    92.800
  7744.00    93.660
  7748.00    92.585
  7752.00    93.210
  7756.00    92.890
  7760.00    94.145
  7764.00    93.730
  7768.00    94.385
  7772.00    92.685
  7776.00    94.435
  7780.00    94.565
  7784.00    94.185
  7788.00    93.700
  7792.00    94.755
  7796.00    94.785
  7800.00    93.505
  7804.00    94.490
  7808.00    94.140
  7812.00    93.505
  7816.00    92.825
  7820.00    93.540
  7824.00    93.545
  7828.00    92.745
  7832.00    93.190
  7836.00    93.985
  7840.00    92.880
  7844.00    93.495
  7848.00    93.300
  7852.00    93.690
  7856.00    92.870
  7860.00    93.655
  7864.00    94.150
  7868.00    93.725
  7872.00    92.690
  7876.00    94.740
  7880.00    93.400
  7884.00    95.010
  7888.00    94.835
  7892.00    94.335
  7896.00    94.820
  7900.00    94.830
  7904.00    95.350
  7908.00    96.200
  7912.00    94.030
  7916.00    95.640
  7920.00    94.615
  7924.00    95.435
  7928.00    93.440
  7932.00    95.280
  7936.00    95.085
  7940.00    95.825
  7944.00    95.225
  7948.00    95.490
  7952.00    96.130
  7956.00    97.335
  7960.00    96.395
  7964.00    97.265
  7968.00    93.900
  7972.00    96.725
  7976.00    94.325
  7980.00    96.495
  7984.00    97.310
  7988.00    95.475
  7992.00    96.010
  7996.00    97.690
  8000.00    96.400
  8004.00    97.290
  8008.00    98.205
  8012.00    96.135
  8016.00    97.625
  8020.00    96.275
  8024.00    96.690
  8028.00    96.285
  8032.00    97.790
  8036.00    97.655
  8040.00    98.020
  8044.00    95.780
  8048.00    97.785
  8052.00    96.065
  8056.00    95.410
  8060.00    98.325
  8064.00    95.585
  8068.00    98.900
  8072.00    98.085
  8076.00    96.405
  8080.00    97.105
  8084.00    96.495
  8088.00    98.055
  8092.00    95.990
  8096.00    96.115
  8100.00    95.110
  8104.00    95.880
  8108.00    95.635
  8112.00    95.220
  8116.00    95.880
  8120.00    93.785
  8124.00    95.550
  8128.00    93.445
  8132.00    94.040
  8136.00    93.700
  8140.00    90.685
  8144.00    92.910
  8148.00    93.245
  8152.00    92.465
  8156.00    93.015
  8160.00    92.555
  8164.00    90.290
  8168.00    87.550
  8172.00    90.035
  8176.00    89.080
  8180.00    88.495
  8184.00    87.450
  8188.00    87.460
  8192.00    86.230
  8196.00    84.675
  8200.00    85.635
  8204.00    82.985
  8208.00    82.525
  8212.00    81.760
  8216.00    81.860
  8220.00    79.720
  8224.00    79.095
  8228.00    78.355
  8232.00    77.785
  8236.00    76.515
  8240.00    73.930
  8244.00    72.615
  8248.00    71.560
  8252.00    70.690
  8256.00    68.295
  8260.00    68.830
  8264.00    67.565
  8268.00    66.050
  8272.00    65.315
  8276.00    62.420
  8280.00    62.340
  8284.00    59.040
  8288.00    58.580
  8292.00    55.850
  8296.00    53.235
  8300.00    54.340
  8304.00    53.040
  8308.00    49.995
  8312.00    49.785
  8316.00    49.330
  8320.00    47.100
  8324.00    43.575
  8328.00    42.225
  8332.00    40.715
  8336.00    40.955
  8340.00    39.755
  8344.00    38.275
  8348.00    37.725
  8352.00    36.015
  8356.00    33.545
  8360.00    33.090
  8364.00    30.910
  8368.00    30.275
  8372.00    29.660
  8376.00    28.245
  8380.00    26.940
  8384.00    27.095
  8388.00    26.675
  8392.00    25.120
  8396.00    23.945
  8400.00    23.210
  8404.00    21.640
  8408.00    20.045
  8412.00    19.420
  8416.00    19.300
  8420.00    19.210
  8424.00    18.200
  8428.00    17.225
  8432.00    16.210
  8436.00    15.985
  8440.00    14.870
  8444.00    14.430
  8448.00    13.305
  8452.00    12.815
  8456.00    13.135
  8460.00    12.165
  8464.00    12.095
  8468.00    11.725
  8472.00    11.225
  8476.00    10.740
  8480.00     9.910
  8484.00     9.705
  8488.00     9.145
  8492.00     8.700
  8496.00     8.810
  8500.00     8.075
  8504.00     7.920
  8508.00     7.940
  8512.00     7.625
  8516.00     7.085
  8520.00     6.940
  8524.00     6.125
  8528.00     6.280
  8532.00     5.930
  8536.00     5.470
  8540.00     5.745
  8544.00     5.370
  8548.00     5.590
  8552.00     4.885
  8556.00     5.000
  8560.00     4.195
  8564.00     4.075
  8568.00     3.790
  8572.00     4.410
  8576.00     4.215
  8580.00     3.885
  8584.00     3.690
  8588.00     4.095
  8592.00     3.630
  8596.00     3.685
  8600.00     3.335
  8604.00     3.210
  8608.00     3.900
  8612.00     3.755
  8616.00     3.665
  8620.00     3.560
  8624.00     3.415
  8628.00     3.250
  8632.00     3.165
  8636.00     3.070
  8640.00     2.945
  8644.00     2.840
  8648.00     2.750
  8652.00     2.665
  8656.00     2.515
  8660.00     2.465
  8664.00     2.380
  8668.00     2.365
  8672.00     2.255
  8676.00     2.180
  8680.00     2.075
  8684.00     2.040
  8688.00     2.005
  8692.00     1.950
  8696.00     1.830
  8700.00     1.850
  8704.00     1.760
  8708.00     1.695
  8712.00     1.625
  8716.00     1.560
  8720.00     1.580
  8724.00     1.490
  8728.00     1.460
  8732.00     1.420
  8736.00     1.375
  8740.00     1.350
  8744.00     1.265
  8748.00     1.245
  8752.00     1.210
  8756.00     1.230
  8760.00     1.165
  8764.00     1.130
  8768.00     1.095
  8772.00     1.035
  8776.00     1.045
  8780.00     1.005
  8784.00     0.950
  8788.00     0.925
  8792.00     0.920
  8796.00     0.860
  8800.00     0.840
  8804.00     0.845
  8808.00     0.830
  8812.00     0.815
  8816.00     0.785
  8820.00     0.825
  8824.00     0.815
  8828.00     0.810
  8832.00     0.730
  8836.00     0.670
  8840.00     0.660
  8844.00     0.710
  8848.00     0.670
  8852.00     0.620
  8856.00     0.615
  8860.00     0.580
  8864.00     0.620
  8868.00     0.620
  8872.00     0.550
  8876.00     0.545
  8880.00     0.585
  8884.00     0.540
  8888.00     0.530
  8892.00     0.515
  8896.00     0.490
  8900.00     0.510
  8904.00     0.455
  8908.00     0.505
  8912.00     0.465
  8916.00     0.480
  8920.00     0.445
  8924.00     0.485
  8928.00     0.425
  8932.00     0.400
  8936.00     0.440
  8940.00     0.410
  8944.00     0.395
  8948.00     0.420
  8952.00     0.375
  8956.00     0.395
  8960.00     0.360
  8964.00     0.365
  8968.00     0.300
  8972.00     0.310
  8976.00     0.330
  8980.00     0.290
  8984.00     0.295
  8988.00     0.255
  8992.00     0.300
  8996.00     0.340
  9000.00     0.285

