#== Filter Data - Lambda 9 Spectrophotometer ==
#  Kitt Peak National Observatory - NOAO
#------------------------------------------------
#Filter: 1NM/120NMPERMIN/0.5S   300 TO 1200NM
#Date: 07/14/03   Time: 10:59:37  Operator: HS
#cwl=  7678.40A  fwhm= 1263.68A  Tmax= 97.22% at  8050.00A
#Tcutoff=  2.00 %  Slitsize = 10 A
#fwhm spans 7046.56A to 8310.24A
#90%  spans 7283.70A to 8182.19A
#bw90 is  0.711; Tmin90/Tmax is  0.900
#No data smoothing
#
#Npts=  901     Disp= 10.00A/Interval
#*****
  3000.00    -0.005
  3010.00    -0.005
  3020.00    -0.005
  3030.00    -0.005
  3040.00     0.000
  3050.00    -0.005
  3060.00    -0.005
  3070.00    -0.005
  3080.00    -0.005
  3090.00    -0.005
  3100.00    -0.005
  3110.00    -0.005
  3120.00    -0.005
  3130.00    -0.005
  3140.00     0.000
  3150.00    -0.005
  3160.00    -0.005
  3170.00     0.000
  3180.00    -0.015
  3190.00    -0.025
  3200.00    -0.005
  3210.00    -0.005
  3220.00    -0.005
  3230.00    -0.005
  3240.00    -0.005
  3250.00    -0.005
  3260.00     0.000
  3270.00    -0.005
  3280.00    -0.005
  3290.00     0.000
  3300.00    -0.005
  3310.00    -0.005
  3320.00    -0.005
  3330.00    -0.010
  3340.00    -0.005
  3350.00    -0.005
  3360.00     0.000
  3370.00    -0.005
  3380.00    -0.005
  3390.00    -0.005
  3400.00    -0.005
  3410.00    -0.005
  3420.00    -0.005
  3430.00    -0.005
  3440.00     0.000
  3450.00    -0.005
  3460.00    -0.005
  3470.00     0.000
  3480.00    -0.005
  3490.00     0.000
  3500.00     0.000
  3510.00     0.000
  3520.00    -0.005
  3530.00    -0.010
  3540.00    -0.005
  3550.00     0.000
  3560.00     0.000
  3570.00    -0.005
  3580.00    -0.005
  3590.00    -0.005
  3600.00     0.000
  3610.00     0.000
  3620.00    -0.005
  3630.00    -0.005
  3640.00    -0.005
  3650.00     0.000
  3660.00    -0.005
  3670.00     0.000
  3680.00     0.000
  3690.00     0.000
  3700.00    -0.005
  3710.00    -0.005
  3720.00    -0.005
  3730.00    -0.005
  3740.00    -0.005
  3750.00    -0.005
  3760.00    -0.005
  3770.00    -0.005
  3780.00    -0.010
  3790.00    -0.005
  3800.00    -0.010
  3810.00    -0.005
  3820.00     0.000
  3830.00     0.000
  3840.00    -0.005
  3850.00    -0.005
  3860.00     0.000
  3870.00     0.000
  3880.00    -0.005
  3890.00     0.000
  3900.00    -0.005
  3910.00    -0.005
  3920.00     0.000
  3930.00    -0.005
  3940.00    -0.005
  3950.00    -0.005
  3960.00     0.000
  3970.00     0.000
  3980.00    -0.005
  3990.00    -0.005
  4000.00     0.000
  4010.00     0.000
  4020.00    -0.005
  4030.00    -0.005
  4040.00    -0.005
  4050.00    -0.005
  4060.00    -0.005
  4070.00     0.000
  4080.00     0.000
  4090.00    -0.005
  4100.00    -0.005
  4110.00    -0.005
  4120.00     0.000
  4130.00    -0.005
  4140.00    -0.005
  4150.00    -0.010
  4160.00     0.000
  4170.00     0.000
  4180.00    -0.005
  4190.00    -0.005
  4200.00    -0.005
  4210.00    -0.005
  4220.00    -0.005
  4230.00     0.000
  4240.00    -0.005
  4250.00    -0.005
  4260.00     0.000
  4270.00     0.000
  4280.00    -0.005
  4290.00     0.000
  4300.00    -0.005
  4310.00    -0.005
  4320.00    -0.005
  4330.00    -0.005
  4340.00    -0.005
  4350.00    -0.005
  4360.00     0.000
  4370.00    -0.005
  4380.00    -0.005
  4390.00    -0.005
  4400.00    -0.005
  4410.00    -0.005
  4420.00     0.000
  4430.00    -0.005
  4440.00    -0.005
  4450.00     0.000
  4460.00    -0.005
  4470.00    -0.005
  4480.00    -0.005
  4490.00    -0.005
  4500.00    -0.005
  4510.00    -0.005
  4520.00    -0.005
  4530.00    -0.005
  4540.00    -0.005
  4550.00    -0.005
  4560.00    -0.005
  4570.00    -0.005
  4580.00    -0.005
  4590.00     0.000
  4600.00    -0.005
  4610.00    -0.005
  4620.00    -0.005
  4630.00     0.000
  4640.00     0.000
  4650.00     0.000
  4660.00    -0.005
  4670.00    -0.005
  4680.00    -0.005
  4690.00     0.000
  4700.00    -0.005
  4710.00    -0.005
  4720.00     0.000
  4730.00     0.000
  4740.00     0.000
  4750.00     0.000
  4760.00    -0.005
  4770.00    -0.005
  4780.00    -0.005
  4790.00     0.000
  4800.00    -0.005
  4810.00    -0.005
  4820.00     0.000
  4830.00    -0.005
  4840.00    -0.005
  4850.00    -0.005
  4860.00    -0.005
  4870.00    -0.005
  4880.00    -0.005
  4890.00    -0.005
  4900.00    -0.005
  4910.00     0.000
  4920.00    -0.005
  4930.00    -0.005
  4940.00     0.000
  4950.00    -0.005
  4960.00    -0.005
  4970.00     0.000
  4980.00     0.000
  4990.00     0.000
  5000.00    -0.005
  5010.00    -0.005
  5020.00     0.000
  5030.00     0.000
  5040.00    -0.005
  5050.00     0.000
  5060.00    -0.005
  5070.00    -0.005
  5080.00    -0.005
  5090.00    -0.005
  5100.00    -0.005
  5110.00    -0.005
  5120.00     0.000
  5130.00     0.000
  5140.00    -0.005
  5150.00     0.000
  5160.00     0.000
  5170.00     0.000
  5180.00     0.000
  5190.00     0.000
  5200.00    -0.005
  5210.00     0.000
  5220.00    -0.005
  5230.00    -0.005
  5240.00    -0.005
  5250.00    -0.005
  5260.00    -0.005
  5270.00    -0.005
  5280.00    -0.005
  5290.00    -0.005
  5300.00    -0.005
  5310.00    -0.005
  5320.00    -0.005
  5330.00    -0.005
  5340.00    -0.005
  5350.00    -0.005
  5360.00    -0.005
  5370.00    -0.005
  5380.00    -0.005
  5390.00    -0.005
  5400.00    -0.005
  5410.00    -0.005
  5420.00    -0.005
  5430.00    -0.005
  5440.00    -0.005
  5450.00     0.000
  5460.00    -0.005
  5470.00    -0.005
  5480.00    -0.005
  5490.00    -0.005
  5500.00     0.000
  5510.00    -0.005
  5520.00    -0.005
  5530.00     0.000
  5540.00     0.000
  5550.00    -0.005
  5560.00    -0.005
  5570.00    -0.005
  5580.00    -0.005
  5590.00     0.000
  5600.00    -0.005
  5610.00    -0.010
  5620.00    -0.030
  5630.00     0.000
  5640.00    -0.005
  5650.00    -0.005
  5660.00    -0.005
  5670.00     0.000
  5680.00    -0.005
  5690.00    -0.005
  5700.00    -0.005
  5710.00     0.000
  5720.00    -0.005
  5730.00    -0.005
  5740.00    -0.005
  5750.00    -0.005
  5760.00    -0.005
  5770.00    -0.005
  5780.00     0.000
  5790.00    -0.005
  5800.00    -0.005
  5810.00    -0.005
  5820.00    -0.005
  5830.00    -0.005
  5840.00     0.000
  5850.00     0.000
  5860.00     0.000
  5870.00    -0.005
  5880.00    -0.005
  5890.00    -0.005
  5900.00    -0.005
  5910.00    -0.005
  5920.00    -0.005
  5930.00    -0.005
  5940.00    -0.005
  5950.00     0.000
  5960.00     0.000
  5970.00    -0.005
  5980.00    -0.005
  5990.00    -0.005
  6000.00    -0.005
  6010.00    -0.005
  6020.00    -0.005
  6030.00     0.000
  6040.00     0.000
  6050.00    -0.005
  6060.00    -0.005
  6070.00    -0.005
  6080.00    -0.005
  6090.00    -0.005
  6100.00    -0.005
  6110.00     0.000
  6120.00    -0.005
  6130.00     0.000
  6140.00    -0.005
  6150.00    -0.005
  6160.00    -0.005
  6170.00    -0.005
  6180.00     0.000
  6190.00    -0.005
  6200.00     0.000
  6210.00    -0.005
  6220.00    -0.005
  6230.00     0.000
  6240.00    -0.005
  6250.00     0.000
  6260.00     0.000
  6270.00    -0.005
  6280.00    -0.005
  6290.00    -0.005
  6300.00     0.000
  6310.00     0.000
  6320.00    -0.005
  6330.00    -0.005
  6340.00     0.000
  6350.00     0.000
  6360.00    -0.005
  6370.00    -0.005
  6380.00     0.000
  6390.00    -0.005
  6400.00    -0.005
  6410.00     0.000
  6420.00    -0.005
  6430.00    -0.005
  6440.00     0.000
  6450.00    -0.005
  6460.00    -0.005
  6470.00    -0.005
  6480.00     0.000
  6490.00    -0.005
  6500.00    -0.005
  6510.00    -0.005
  6520.00    -0.005
  6530.00    -0.005
  6540.00    -0.005
  6550.00    -0.005
  6560.00    -0.005
  6570.00    -0.005
  6580.00     0.000
  6590.00     0.000
  6600.00    -0.005
  6610.00    -0.005
  6620.00     0.000
  6630.00     0.000
  6640.00    -0.005
  6650.00     0.000
  6660.00    -0.005
  6670.00     0.000
  6680.00    -0.005
  6690.00     0.000
  6700.00    -0.005
  6710.00     0.000
  6720.00     0.005
  6730.00     0.005
  6740.00     0.010
  6750.00     0.015
  6760.00     0.035
  6770.00     0.055
  6780.00     0.085
  6790.00     0.135
  6800.00     0.205
  6810.00     0.315
  6820.00     0.465
  6830.00     0.680
  6840.00     0.985
  6850.00     1.385
  6860.00     1.925
  6870.00     2.620
  6880.00     3.515
  6890.00     4.605
  6900.00     5.915
  6910.00     7.580
  6920.00     9.485
  6930.00    11.675
  6940.00    14.150
  6950.00    16.815
  6960.00    19.770
  6970.00    22.890
  6980.00    26.140
  6990.00    29.520
  7000.00    32.900
  7010.00    36.390
  7020.00    39.830
  7030.00    43.235
  7040.00    46.565
  7050.00    49.685
  7060.00    52.730
  7070.00    55.615
  7080.00    58.375
  7090.00    60.860
  7100.00    63.135
  7110.00    65.370
  7120.00    67.515
  7130.00    69.445
  7140.00    71.250
  7150.00    72.755
  7160.00    74.245
  7170.00    75.775
  7180.00    77.120
  7190.00    78.355
  7200.00    79.525
  7210.00    80.745
  7220.00    81.710
  7230.00    82.705
  7240.00    83.820
  7250.00    84.595
  7260.00    85.540
  7270.00    86.345
  7280.00    87.195
  7290.00    88.025
  7300.00    88.910
  7310.00    89.660
  7320.00    90.245
  7330.00    91.050
  7340.00    91.635
  7350.00    92.265
  7360.00    92.885
  7370.00    93.620
  7380.00    94.210
  7390.00    94.405
  7400.00    94.990
  7410.00    95.460
  7420.00    95.910
  7430.00    95.940
  7440.00    96.165
  7450.00    96.575
  7460.00    96.750
  7470.00    96.935
  7480.00    97.010
  7490.00    96.995
  7500.00    96.915
  7510.00    96.990
  7520.00    96.895
  7530.00    97.015
  7540.00    96.510
  7550.00    96.590
  7560.00    96.250
  7570.00    96.280
  7580.00    96.015
  7590.00    95.890
  7600.00    95.525
  7610.00    95.395
  7620.00    95.445
  7630.00    95.210
  7640.00    94.735
  7650.00    94.845
  7660.00    94.370
  7670.00    94.520
  7680.00    94.195
  7690.00    94.035
  7700.00    93.710
  7710.00    93.680
  7720.00    93.675
  7730.00    93.580
  7740.00    93.515
  7750.00    93.375
  7760.00    93.400
  7770.00    93.475
  7780.00    93.285
  7790.00    93.605
  7800.00    93.550
  7810.00    93.725
  7820.00    93.685
  7830.00    93.960
  7840.00    94.030
  7850.00    93.975
  7860.00    94.375
  7870.00    94.085
  7880.00    94.385
  7890.00    94.580
  7900.00    94.635
  7910.00    95.115
  7920.00    95.250
  7930.00    95.585
  7940.00    95.545
  7950.00    95.635
  7960.00    95.990
  7970.00    96.090
  7980.00    96.245
  7990.00    96.760
  8000.00    96.520
  8010.00    96.660
  8020.00    96.905
  8030.00    96.840
  8040.00    96.925
  8050.00    97.225
  8060.00    96.720
  8070.00    96.610
  8080.00    96.125
  8090.00    96.130
  8100.00    95.845
  8110.00    95.320
  8120.00    94.685
  8130.00    93.900
  8140.00    93.425
  8150.00    91.915
  8160.00    91.030
  8170.00    89.465
  8180.00    87.870
  8190.00    86.195
  8200.00    83.855
  8210.00    81.425
  8220.00    79.145
  8230.00    76.115
  8240.00    73.235
  8250.00    70.005
  8260.00    66.545
  8270.00    63.095
  8280.00    59.590
  8290.00    55.675
  8300.00    52.125
  8310.00    48.700
  8320.00    45.095
  8330.00    41.495
  8340.00    38.310
  8350.00    34.995
  8360.00    32.050
  8370.00    29.290
  8380.00    26.585
  8390.00    24.195
  8400.00    21.910
  8410.00    19.940
  8420.00    17.900
  8430.00    16.230
  8440.00    14.600
  8450.00    13.190
  8460.00    11.970
  8470.00    10.915
  8480.00     9.820
  8490.00     8.860
  8500.00     8.010
  8510.00     7.210
  8520.00     6.580
  8530.00     5.890
  8540.00     5.360
  8550.00     4.850
  8560.00     4.485
  8570.00     4.115
  8580.00     3.755
  8590.00     3.385
  8600.00     3.220
  8610.00     3.560
  8620.00     3.235
  8630.00     2.975
  8640.00     2.765
  8650.00     2.550
  8660.00     2.315
  8670.00     2.160
  8680.00     1.965
  8690.00     1.775
  8700.00     1.645
  8710.00     1.555
  8720.00     1.470
  8730.00     1.340
  8740.00     1.270
  8750.00     1.165
  8760.00     1.075
  8770.00     1.020
  8780.00     0.910
  8790.00     0.860
  8800.00     0.805
  8810.00     0.750
  8820.00     0.735
  8830.00     0.655
  8840.00     0.635
  8850.00     0.605
  8860.00     0.575
  8870.00     0.540
  8880.00     0.515
  8890.00     0.445
  8900.00     0.405
  8910.00     0.390
  8920.00     0.405
  8930.00     0.360
  8940.00     0.360
  8950.00     0.405
  8960.00     0.340
  8970.00     0.355
  8980.00     0.295
  8990.00     0.300
  9000.00     0.295
  9010.00     0.280
  9020.00     0.280
  9030.00     0.275
  9040.00     0.205
  9050.00     0.235
  9060.00     0.250
  9070.00     0.230
  9080.00     0.225
  9090.00     0.150
  9100.00     0.170
  9110.00     0.155
  9120.00     0.190
  9130.00     0.160
  9140.00     0.135
  9150.00     0.125
  9160.00     0.110
  9170.00     0.150
  9180.00     0.105
  9190.00     0.145
  9200.00     0.180
  9210.00     0.135
  9220.00     0.170
  9230.00     0.100
  9240.00     0.085
  9250.00     0.130
  9260.00     0.145
  9270.00     0.100
  9280.00     0.070
  9290.00     0.110
  9300.00     0.070
  9310.00     0.110
  9320.00     0.115
  9330.00     0.070
  9340.00     0.135
  9350.00     0.085
  9360.00     0.090
  9370.00     0.105
  9380.00     0.075
  9390.00     0.145
  9400.00     0.065
  9410.00     0.155
  9420.00     0.130
  9430.00     0.070
  9440.00     0.125
  9450.00     0.135
  9460.00     0.045
  9470.00     0.050
  9480.00     0.060
  9490.00     0.095
  9500.00     0.060
  9510.00     0.080
  9520.00     0.020
  9530.00     0.040
  9540.00     0.060
  9550.00     0.100
  9560.00     0.100
  9570.00     0.115
  9580.00     0.045
  9590.00     0.075
  9600.00     0.055
  9610.00     0.060
  9620.00     0.055
  9630.00     0.030
  9640.00     0.055
  9650.00     0.080
  9660.00     0.070
  9670.00     0.075
  9680.00     0.100
  9690.00     0.055
  9700.00     0.065
  9710.00     0.085
  9720.00     0.115
  9730.00     0.100
  9740.00     0.060
  9750.00     0.020
  9760.00     0.010
  9770.00     0.005
  9780.00     0.085
  9790.00     0.065
  9800.00     0.065
  9810.00     0.020
  9820.00     0.095
  9830.00     0.055
  9840.00     0.040
  9850.00     0.085
  9860.00     0.060
  9870.00     0.095
  9880.00     0.050
  9890.00     0.055
  9900.00     0.060
  9910.00     0.055
  9920.00     0.095
  9930.00     0.090
  9940.00     0.050
  9950.00     0.030
  9960.00     0.085
  9970.00     0.050
  9980.00     0.045
  9990.00     0.050
 10000.00     0.090
 10010.00     0.080
 10020.00     0.125
 10030.00     0.070
 10040.00     0.110
 10050.00     0.050
 10060.00     0.070
 10070.00     0.070
 10080.00     0.010
 10090.00     0.075
 10100.00     0.085
 10110.00     0.110
 10120.00     0.050
 10130.00     0.070
 10140.00     0.055
 10150.00     0.085
 10160.00     0.050
 10170.00     0.110
 10180.00     0.060
 10190.00     0.040
 10200.00     0.080
 10210.00     0.025
 10220.00     0.085
 10230.00     0.060
 10240.00     0.125
 10250.00     0.095
 10260.00     0.120
 10270.00     0.100
 10280.00     0.090
 10290.00     0.115
 10300.00     0.045
 10310.00     0.065
 10320.00     0.110
 10330.00     0.080
 10340.00     0.070
 10350.00     0.120
 10360.00     0.075
 10370.00     0.045
 10380.00     0.105
 10390.00     0.120
 10400.00     0.100
 10410.00     0.145
 10420.00     0.105
 10430.00     0.100
 10440.00     0.130
 10450.00     0.060
 10460.00     0.175
 10470.00     0.085
 10480.00     0.095
 10490.00     0.090
 10500.00     0.095
 10510.00     0.085
 10520.00     0.115
 10530.00     0.145
 10540.00     0.190
 10550.00     0.085
 10560.00     0.160
 10570.00     0.175
 10580.00     0.080
 10590.00     0.135
 10600.00     0.165
 10610.00     0.210
 10620.00     0.195
 10630.00     0.170
 10640.00     0.185
 10650.00     0.210
 10660.00     0.265
 10670.00     0.255
 10680.00     0.200
 10690.00     0.195
 10700.00     0.230
 10710.00     0.275
 10720.00     0.310
 10730.00     0.255
 10740.00     0.275
 10750.00     0.265
 10760.00     0.250
 10770.00     0.310
 10780.00     0.295
 10790.00     0.370
 10800.00     0.360
 10810.00     0.350
 10820.00     0.295
 10830.00     0.325
 10840.00     0.420
 10850.00     0.390
 10860.00     0.380
 10870.00     0.445
 10880.00     0.495
 10890.00     0.540
 10900.00     0.565
 10910.00     0.550
 10920.00     0.555
 10930.00     0.595
 10940.00     0.680
 10950.00     0.710
 10960.00     0.750
 10970.00     0.765
 10980.00     0.785
 10990.00     0.845
 11000.00     0.920
 11010.00     0.915
 11020.00     1.025
 11030.00     1.120
 11040.00     1.140
 11050.00     1.215
 11060.00     1.340
 11070.00     1.420
 11080.00     1.490
 11090.00     1.545
 11100.00     1.730
 11110.00     1.860
 11120.00     1.930
 11130.00     2.140
 11140.00     2.295
 11150.00     2.490
 11160.00     2.655
 11170.00     2.890
 11180.00     3.170
 11190.00     3.365
 11200.00     3.700
 11210.00     3.940
 11220.00     4.260
 11230.00     4.745
 11240.00     5.330
 11250.00     5.830
 11260.00     6.390
 11270.00     7.115
 11280.00     7.820
 11290.00     8.645
 11300.00     9.670
 11310.00    10.855
 11320.00    12.110
 11330.00    13.485
 11340.00    15.105
 11350.00    16.800
 11360.00    19.060
 11370.00    21.770
 11380.00    24.850
 11390.00    28.275
 11400.00    32.125
 11410.00    36.255
 11420.00    40.870
 11430.00    46.075
 11440.00    51.650
 11450.00    57.580
 11460.00    63.440
 11470.00    68.875
 11480.00    73.630
 11490.00    77.470
 11500.00    79.915
 11510.00    81.035
 11520.00    80.520
 11530.00    78.845
 11540.00    76.225
 11550.00    72.745
 11560.00    68.990
 11570.00    64.980
 11580.00    60.875
 11590.00    57.045
 11600.00    53.535
 11610.00    50.355
 11620.00    47.390
 11630.00    44.510
 11640.00    41.910
 11650.00    39.440
 11660.00    37.335
 11670.00    35.550
 11680.00    34.020
 11690.00    32.625
 11700.00    31.330
 11710.00    30.045
 11720.00    28.850
 11730.00    27.725
 11740.00    26.855
 11750.00    26.155
 11760.00    25.600
 11770.00    25.065
 11780.00    24.480
 11790.00    23.935
 11800.00    23.315
 11810.00    22.815
 11820.00    22.530
 11830.00    22.290
 11840.00    22.165
 11850.00    22.010
 11860.00    21.775
 11870.00    21.460
 11880.00    21.100
 11890.00    20.905
 11900.00    20.925
 11910.00    21.175
 11920.00    21.405
 11930.00    21.505
 11940.00    21.505
 11950.00    21.440
 11960.00    21.465
 11970.00    21.545
 11980.00    21.730
 11990.00    22.070
 12000.00    22.255

