#== Filter Data - Lambda 9 Spectrophotometer ==
#  Kitt Peak National Observatory - NOAO
#------------------------------------------------
#Filter: 1NM/120NMPERMIN/0.5S   300 TO 1200NM
#Date: 07/14/03   Time: 10:59:44  Operator: HS
#cwl=     0.00A  fwhm=   0.00A  Tmax= 97.53% at 10250.00A
#Tcutoff=  2.00 %  Slitsize = 10 A
#Errms2: Data never reaches HI wavelength %%T cutoff.
#Errms3: Central wavelength & FWHM cannot be calculated.
#No data smoothing
#
#Npts=  901     Disp= 10.00A/Interval
#*****
  3000.00    -0.005
  3010.00    -0.005
  3020.00    -0.005
  3030.00    -0.005
  3040.00    -0.005
  3050.00    -0.005
  3060.00    -0.005
  3070.00    -0.005
  3080.00    -0.005
  3090.00    -0.005
  3100.00    -0.005
  3110.00    -0.005
  3120.00    -0.005
  3130.00    -0.005
  3140.00    -0.005
  3150.00    -0.005
  3160.00    -0.005
  3170.00     0.000
  3180.00    -0.015
  3190.00    -0.025
  3200.00    -0.005
  3210.00    -0.005
  3220.00    -0.005
  3230.00     0.000
  3240.00    -0.005
  3250.00    -0.005
  3260.00    -0.005
  3270.00     0.000
  3280.00     0.000
  3290.00    -0.005
  3300.00    -0.005
  3310.00    -0.005
  3320.00    -0.005
  3330.00    -0.005
  3340.00    -0.005
  3350.00    -0.005
  3360.00    -0.005
  3370.00    -0.005
  3380.00    -0.005
  3390.00    -0.005
  3400.00    -0.005
  3410.00    -0.005
  3420.00     0.000
  3430.00     0.000
  3440.00     0.000
  3450.00    -0.005
  3460.00    -0.005
  3470.00    -0.005
  3480.00    -0.005
  3490.00    -0.005
  3500.00     0.000
  3510.00    -0.005
  3520.00    -0.005
  3530.00    -0.005
  3540.00    -0.005
  3550.00     0.000
  3560.00    -0.005
  3570.00     0.000
  3580.00    -0.005
  3590.00     0.000
  3600.00    -0.005
  3610.00    -0.005
  3620.00    -0.005
  3630.00    -0.005
  3640.00     0.000
  3650.00    -0.005
  3660.00    -0.005
  3670.00    -0.005
  3680.00    -0.005
  3690.00     0.000
  3700.00    -0.005
  3710.00    -0.005
  3720.00    -0.005
  3730.00     0.000
  3740.00     0.000
  3750.00     0.000
  3760.00    -0.005
  3770.00    -0.005
  3780.00    -0.010
  3790.00    -0.005
  3800.00    -0.005
  3810.00    -0.005
  3820.00    -0.005
  3830.00    -0.005
  3840.00     0.000
  3850.00    -0.005
  3860.00    -0.005
  3870.00    -0.005
  3880.00     0.000
  3890.00    -0.005
  3900.00    -0.005
  3910.00    -0.005
  3920.00    -0.005
  3930.00     0.000
  3940.00     0.000
  3950.00     0.000
  3960.00    -0.005
  3970.00    -0.005
  3980.00    -0.005
  3990.00    -0.005
  4000.00    -0.005
  4010.00    -0.005
  4020.00    -0.005
  4030.00    -0.005
  4040.00    -0.005
  4050.00    -0.005
  4060.00    -0.005
  4070.00    -0.005
  4080.00     0.000
  4090.00    -0.005
  4100.00    -0.005
  4110.00    -0.005
  4120.00    -0.005
  4130.00     0.000
  4140.00    -0.005
  4150.00    -0.005
  4160.00    -0.005
  4170.00     0.000
  4180.00     0.000
  4190.00    -0.005
  4200.00    -0.005
  4210.00    -0.005
  4220.00     0.000
  4230.00    -0.005
  4240.00     0.000
  4250.00    -0.005
  4260.00     0.000
  4270.00     0.000
  4280.00    -0.005
  4290.00    -0.005
  4300.00     0.000
  4310.00    -0.005
  4320.00     0.000
  4330.00     0.000
  4340.00    -0.005
  4350.00    -0.005
  4360.00    -0.005
  4370.00    -0.005
  4380.00     0.000
  4390.00    -0.005
  4400.00     0.000
  4410.00     0.000
  4420.00    -0.005
  4430.00    -0.005
  4440.00    -0.010
  4450.00     0.000
  4460.00    -0.005
  4470.00    -0.005
  4480.00     0.000
  4490.00    -0.005
  4500.00    -0.005
  4510.00    -0.005
  4520.00    -0.005
  4530.00    -0.005
  4540.00    -0.005
  4550.00     0.000
  4560.00    -0.005
  4570.00    -0.005
  4580.00    -0.005
  4590.00    -0.005
  4600.00    -0.005
  4610.00    -0.005
  4620.00    -0.005
  4630.00    -0.005
  4640.00     0.000
  4650.00     0.000
  4660.00    -0.005
  4670.00     0.000
  4680.00     0.000
  4690.00    -0.005
  4700.00     0.000
  4710.00    -0.005
  4720.00    -0.005
  4730.00    -0.005
  4740.00     0.000
  4750.00     0.000
  4760.00    -0.005
  4770.00    -0.005
  4780.00    -0.005
  4790.00    -0.005
  4800.00    -0.005
  4810.00    -0.005
  4820.00    -0.005
  4830.00    -0.005
  4840.00    -0.005
  4850.00    -0.005
  4860.00    -0.005
  4870.00    -0.005
  4880.00    -0.005
  4890.00    -0.005
  4900.00    -0.005
  4910.00     0.000
  4920.00    -0.005
  4930.00    -0.005
  4940.00    -0.005
  4950.00    -0.005
  4960.00    -0.005
  4970.00    -0.005
  4980.00    -0.005
  4990.00    -0.005
  5000.00     0.000
  5010.00    -0.005
  5020.00     0.000
  5030.00    -0.005
  5040.00    -0.005
  5050.00    -0.005
  5060.00     0.000
  5070.00    -0.005
  5080.00    -0.005
  5090.00    -0.005
  5100.00     0.000
  5110.00    -0.005
  5120.00    -0.005
  5130.00     0.000
  5140.00    -0.005
  5150.00    -0.005
  5160.00    -0.005
  5170.00     0.000
  5180.00    -0.005
  5190.00    -0.005
  5200.00    -0.005
  5210.00    -0.005
  5220.00     0.000
  5230.00    -0.005
  5240.00     0.000
  5250.00    -0.005
  5260.00    -0.005
  5270.00    -0.005
  5280.00    -0.005
  5290.00    -0.005
  5300.00    -0.005
  5310.00    -0.005
  5320.00    -0.005
  5330.00    -0.005
  5340.00    -0.005
  5350.00    -0.005
  5360.00     0.000
  5370.00    -0.005
  5380.00    -0.005
  5390.00    -0.005
  5400.00     0.000
  5410.00     0.000
  5420.00    -0.005
  5430.00    -0.005
  5440.00    -0.005
  5450.00    -0.005
  5460.00    -0.005
  5470.00     0.000
  5480.00    -0.005
  5490.00    -0.005
  5500.00    -0.005
  5510.00     0.000
  5520.00    -0.005
  5530.00     0.000
  5540.00    -0.005
  5550.00     0.000
  5560.00    -0.005
  5570.00    -0.005
  5580.00     0.000
  5590.00    -0.005
  5600.00    -0.005
  5610.00    -0.010
  5620.00    -0.040
  5630.00    -0.005
  5640.00    -0.005
  5650.00    -0.005
  5660.00    -0.005
  5670.00     0.000
  5680.00    -0.005
  5690.00    -0.005
  5700.00    -0.005
  5710.00    -0.005
  5720.00    -0.005
  5730.00    -0.005
  5740.00    -0.005
  5750.00     0.000
  5760.00    -0.005
  5770.00     0.000
  5780.00    -0.005
  5790.00    -0.005
  5800.00     0.000
  5810.00     0.000
  5820.00    -0.005
  5830.00    -0.005
  5840.00    -0.005
  5850.00     0.000
  5860.00    -0.005
  5870.00     0.000
  5880.00     0.000
  5890.00     0.000
  5900.00    -0.005
  5910.00     0.000
  5920.00    -0.005
  5930.00    -0.005
  5940.00     0.000
  5950.00    -0.005
  5960.00    -0.005
  5970.00    -0.005
  5980.00    -0.005
  5990.00    -0.005
  6000.00    -0.005
  6010.00    -0.005
  6020.00    -0.005
  6030.00     0.000
  6040.00    -0.005
  6050.00     0.000
  6060.00    -0.005
  6070.00    -0.005
  6080.00     0.000
  6090.00    -0.005
  6100.00    -0.005
  6110.00    -0.005
  6120.00    -0.005
  6130.00     0.000
  6140.00    -0.005
  6150.00    -0.005
  6160.00    -0.005
  6170.00    -0.005
  6180.00     0.000
  6190.00    -0.005
  6200.00    -0.005
  6210.00    -0.005
  6220.00    -0.005
  6230.00     0.000
  6240.00    -0.005
  6250.00    -0.005
  6260.00     0.000
  6270.00     0.000
  6280.00     0.000
  6290.00     0.000
  6300.00    -0.005
  6310.00     0.000
  6320.00    -0.005
  6330.00    -0.005
  6340.00     0.000
  6350.00     0.000
  6360.00    -0.005
  6370.00     0.000
  6380.00    -0.005
  6390.00    -0.005
  6400.00     0.000
  6410.00     0.000
  6420.00    -0.005
  6430.00    -0.005
  6440.00    -0.005
  6450.00     0.000
  6460.00    -0.005
  6470.00    -0.005
  6480.00     0.000
  6490.00    -0.005
  6500.00    -0.005
  6510.00    -0.005
  6520.00     0.000
  6530.00    -0.005
  6540.00    -0.005
  6550.00    -0.005
  6560.00    -0.005
  6570.00     0.000
  6580.00     0.000
  6590.00    -0.005
  6600.00    -0.005
  6610.00    -0.005
  6620.00    -0.005
  6630.00    -0.005
  6640.00    -0.005
  6650.00    -0.005
  6660.00     0.000
  6670.00     0.000
  6680.00    -0.005
  6690.00    -0.005
  6700.00     0.000
  6710.00     0.000
  6720.00     0.000
  6730.00    -0.005
  6740.00     0.000
  6750.00     0.000
  6760.00    -0.005
  6770.00     0.000
  6780.00    -0.005
  6790.00     0.000
  6800.00     0.000
  6810.00    -0.005
  6820.00    -0.005
  6830.00    -0.005
  6840.00     0.000
  6850.00    -0.005
  6860.00    -0.005
  6870.00    -0.005
  6880.00    -0.005
  6890.00    -0.010
  6900.00    -0.040
  6910.00    -0.005
  6920.00     0.000
  6930.00    -0.005
  6940.00     0.000
  6950.00    -0.005
  6960.00    -0.005
  6970.00    -0.005
  6980.00     0.000
  6990.00    -0.005
  7000.00    -0.005
  7010.00     0.000
  7020.00     0.000
  7030.00     0.000
  7040.00     0.000
  7050.00    -0.005
  7060.00    -0.005
  7070.00     0.000
  7080.00     0.000
  7090.00     0.000
  7100.00    -0.005
  7110.00    -0.005
  7120.00     0.000
  7130.00     0.000
  7140.00     0.000
  7150.00    -0.005
  7160.00    -0.005
  7170.00    -0.005
  7180.00     0.000
  7190.00    -0.005
  7200.00    -0.005
  7210.00    -0.005
  7220.00    -0.005
  7230.00     0.000
  7240.00    -0.005
  7250.00    -0.005
  7260.00    -0.005
  7270.00     0.000
  7280.00    -0.005
  7290.00    -0.005
  7300.00    -0.005
  7310.00    -0.005
  7320.00     0.000
  7330.00    -0.005
  7340.00    -0.005
  7350.00     0.000
  7360.00    -0.005
  7370.00     0.000
  7380.00     0.000
  7390.00     0.000
  7400.00     0.000
  7410.00     0.000
  7420.00    -0.005
  7430.00     0.000
  7440.00     0.000
  7450.00     0.000
  7460.00    -0.005
  7470.00     0.000
  7480.00    -0.005
  7490.00    -0.005
  7500.00    -0.005
  7510.00     0.000
  7520.00     0.000
  7530.00     0.000
  7540.00     0.000
  7550.00     0.000
  7560.00    -0.005
  7570.00    -0.005
  7580.00     0.000
  7590.00     0.000
  7600.00    -0.005
  7610.00    -0.005
  7620.00     0.000
  7630.00    -0.005
  7640.00    -0.005
  7650.00     0.000
  7660.00    -0.005
  7670.00     0.000
  7680.00     0.000
  7690.00    -0.005
  7700.00     0.000
  7710.00    -0.005
  7720.00     0.000
  7730.00     0.000
  7740.00     0.000
  7750.00     0.000
  7760.00     0.000
  7770.00     0.000
  7780.00     0.000
  7790.00     0.000
  7800.00     0.000
  7810.00     0.000
  7820.00     0.000
  7830.00     0.000
  7840.00     0.000
  7850.00     0.000
  7860.00     0.005
  7870.00     0.005
  7880.00     0.005
  7890.00     0.010
  7900.00     0.010
  7910.00     0.015
  7920.00     0.020
  7930.00     0.025
  7940.00     0.030
  7950.00     0.040
  7960.00     0.050
  7970.00     0.065
  7980.00     0.085
  7990.00     0.105
  8000.00     0.140
  8010.00     0.180
  8020.00     0.220
  8030.00     0.285
  8040.00     0.355
  8050.00     0.455
  8060.00     0.570
  8070.00     0.710
  8080.00     0.880
  8090.00     1.105
  8100.00     1.365
  8110.00     1.700
  8120.00     2.085
  8130.00     2.550
  8140.00     3.130
  8150.00     3.810
  8160.00     4.620
  8170.00     5.510
  8180.00     6.585
  8190.00     7.710
  8200.00     9.155
  8210.00    10.675
  8220.00    12.440
  8230.00    14.260
  8240.00    16.390
  8250.00    18.560
  8260.00    20.920
  8270.00    23.475
  8280.00    26.020
  8290.00    28.675
  8300.00    31.325
  8310.00    34.090
  8320.00    36.940
  8330.00    39.865
  8340.00    42.460
  8350.00    45.245
  8360.00    47.960
  8370.00    50.610
  8380.00    53.010
  8390.00    55.775
  8400.00    57.955
  8410.00    59.925
  8420.00    62.490
  8430.00    64.375
  8440.00    66.035
  8450.00    67.970
  8460.00    69.855
  8470.00    71.620
  8480.00    72.880
  8490.00    74.370
  8500.00    75.775
  8510.00    77.195
  8520.00    78.445
  8530.00    79.200
  8540.00    80.435
  8550.00    80.810
  8560.00    82.115
  8570.00    83.540
  8580.00    83.895
  8590.00    84.830
  8600.00    85.145
  8610.00    84.945
  8620.00    85.645
  8630.00    86.285
  8640.00    86.870
  8650.00    87.390
  8660.00    87.960
  8670.00    88.430
  8680.00    88.925
  8690.00    89.315
  8700.00    89.725
  8710.00    90.070
  8720.00    90.400
  8730.00    90.780
  8740.00    91.025
  8750.00    91.295
  8760.00    91.610
  8770.00    91.820
  8780.00    92.100
  8790.00    92.235
  8800.00    92.475
  8810.00    92.730
  8820.00    92.880
  8830.00    93.095
  8840.00    93.230
  8850.00    93.435
  8860.00    93.580
  8870.00    93.700
  8880.00    93.790
  8890.00    93.985
  8900.00    94.025
  8910.00    94.220
  8920.00    94.410
  8930.00    94.485
  8940.00    94.520
  8950.00    94.635
  8960.00    94.785
  8970.00    94.845
  8980.00    94.950
  8990.00    94.975
  9000.00    95.075
  9010.00    95.190
  9020.00    95.215
  9030.00    95.335
  9040.00    95.285
  9050.00    95.445
  9060.00    95.455
  9070.00    95.565
  9080.00    95.535
  9090.00    95.550
  9100.00    95.620
  9110.00    95.635
  9120.00    95.740
  9130.00    95.750
  9140.00    95.810
  9150.00    95.900
  9160.00    95.875
  9170.00    95.930
  9180.00    95.985
  9190.00    96.055
  9200.00    96.090
  9210.00    96.120
  9220.00    96.085
  9230.00    96.165
  9240.00    96.180
  9250.00    96.255
  9260.00    96.260
  9270.00    96.280
  9280.00    96.325
  9290.00    96.355
  9300.00    96.395
  9310.00    96.420
  9320.00    96.440
  9330.00    96.490
  9340.00    96.520
  9350.00    96.595
  9360.00    96.630
  9370.00    96.655
  9380.00    96.680
  9390.00    96.675
  9400.00    96.690
  9410.00    96.630
  9420.00    96.690
  9430.00    96.735
  9440.00    96.780
  9450.00    96.800
  9460.00    96.830
  9470.00    96.870
  9480.00    96.925
  9490.00    96.880
  9500.00    96.885
  9510.00    96.870
  9520.00    96.905
  9530.00    96.990
  9540.00    96.945
  9550.00    96.980
  9560.00    96.990
  9570.00    97.020
  9580.00    97.030
  9590.00    96.995
  9600.00    97.025
  9610.00    97.010
  9620.00    97.065
  9630.00    97.005
  9640.00    97.050
  9650.00    97.085
  9660.00    97.120
  9670.00    97.050
  9680.00    97.120
  9690.00    97.170
  9700.00    97.110
  9710.00    97.155
  9720.00    97.235
  9730.00    97.250
  9740.00    97.295
  9750.00    97.200
  9760.00    97.300
  9770.00    97.215
  9780.00    97.240
  9790.00    97.205
  9800.00    97.265
  9810.00    97.255
  9820.00    97.265
  9830.00    97.280
  9840.00    97.295
  9850.00    97.295
  9860.00    97.355
  9870.00    97.310
  9880.00    97.350
  9890.00    97.405
  9900.00    97.365
  9910.00    97.365
  9920.00    97.405
  9930.00    97.435
  9940.00    97.400
  9950.00    97.385
  9960.00    97.415
  9970.00    97.410
  9980.00    97.405
  9990.00    97.390
 10000.00    97.440
 10010.00    97.460
 10020.00    97.435
 10030.00    97.460
 10040.00    97.450
 10050.00    97.505
 10060.00    97.465
 10070.00    97.405
 10080.00    97.395
 10090.00    97.485
 10100.00    97.385
 10110.00    97.465
 10120.00    97.440
 10130.00    97.410
 10140.00    97.415
 10150.00    97.405
 10160.00    97.480
 10170.00    97.440
 10180.00    97.510
 10190.00    97.500
 10200.00    97.470
 10210.00    97.515
 10220.00    97.510
 10230.00    97.450
 10240.00    97.470
 10250.00    97.530
 10260.00    97.450
 10270.00    97.500
 10280.00    97.420
 10290.00    97.425
 10300.00    97.415
 10310.00    97.435
 10320.00    97.410
 10330.00    97.380
 10340.00    97.435
 10350.00    97.360
 10360.00    97.410
 10370.00    97.385
 10380.00    97.295
 10390.00    97.350
 10400.00    97.440
 10410.00    97.350
 10420.00    97.380
 10430.00    97.395
 10440.00    97.310
 10450.00    97.365
 10460.00    97.345
 10470.00    97.305
 10480.00    97.345
 10490.00    97.290
 10500.00    97.370
 10510.00    97.290
 10520.00    97.320
 10530.00    97.300
 10540.00    97.345
 10550.00    97.280
 10560.00    97.320
 10570.00    97.330
 10580.00    97.250
 10590.00    97.270
 10600.00    97.250
 10610.00    97.215
 10620.00    97.145
 10630.00    97.210
 10640.00    97.150
 10650.00    97.110
 10660.00    97.115
 10670.00    97.110
 10680.00    97.175
 10690.00    97.095
 10700.00    97.070
 10710.00    97.045
 10720.00    97.110
 10730.00    97.100
 10740.00    97.100
 10750.00    97.025
 10760.00    96.990
 10770.00    97.000
 10780.00    97.055
 10790.00    97.000
 10800.00    96.955
 10810.00    96.910
 10820.00    96.910
 10830.00    96.910
 10840.00    96.860
 10850.00    96.825
 10860.00    96.895
 10870.00    96.880
 10880.00    96.800
 10890.00    96.875
 10900.00    96.845
 10910.00    96.745
 10920.00    96.730
 10930.00    96.705
 10940.00    96.680
 10950.00    96.715
 10960.00    96.685
 10970.00    96.650
 10980.00    96.635
 10990.00    96.675
 11000.00    96.670
 11010.00    96.650
 11020.00    96.680
 11030.00    96.595
 11040.00    96.580
 11050.00    96.540
 11060.00    96.525
 11070.00    96.505
 11080.00    96.510
 11090.00    96.435
 11100.00    96.400
 11110.00    96.340
 11120.00    96.385
 11130.00    96.300
 11140.00    96.300
 11150.00    96.260
 11160.00    96.220
 11170.00    96.240
 11180.00    96.215
 11190.00    96.200
 11200.00    96.155
 11210.00    96.160
 11220.00    96.170
 11230.00    96.110
 11240.00    96.095
 11250.00    96.090
 11260.00    96.095
 11270.00    95.925
 11280.00    95.925
 11290.00    95.890
 11300.00    95.870
 11310.00    95.810
 11320.00    95.755
 11330.00    95.760
 11340.00    95.695
 11350.00    95.705
 11360.00    95.735
 11370.00    95.580
 11380.00    95.545
 11390.00    95.595
 11400.00    95.550
 11410.00    95.570
 11420.00    95.525
 11430.00    95.490
 11440.00    95.465
 11450.00    95.395
 11460.00    95.455
 11470.00    95.400
 11480.00    95.375
 11490.00    95.375
 11500.00    95.295
 11510.00    95.385
 11520.00    95.335
 11530.00    95.305
 11540.00    95.345
 11550.00    95.300
 11560.00    95.315
 11570.00    95.210
 11580.00    95.245
 11590.00    95.185
 11600.00    95.130
 11610.00    95.090
 11620.00    95.100
 11630.00    94.990
 11640.00    95.020
 11650.00    95.040
 11660.00    94.965
 11670.00    94.915
 11680.00    94.905
 11690.00    94.870
 11700.00    94.830
 11710.00    94.790
 11720.00    94.810
 11730.00    94.735
 11740.00    94.780
 11750.00    94.745
 11760.00    94.735
 11770.00    94.650
 11780.00    94.590
 11790.00    94.535
 11800.00    94.470
 11810.00    94.450
 11820.00    94.415
 11830.00    94.425
 11840.00    94.385
 11850.00    94.350
 11860.00    94.330
 11870.00    94.335
 11880.00    94.245
 11890.00    94.250
 11900.00    94.140
 11910.00    94.120
 11920.00    94.080
 11930.00    94.070
 11940.00    94.065
 11950.00    93.985
 11960.00    94.000
 11970.00    93.995
 11980.00    93.905
 11990.00    93.925
 12000.00    93.915

