#== Filter Data - Lambda 9 Spectrophotometer ==
#  Kitt Peak National Observatory - NOAO
#------------------------------------------------
#Filter: 1NM/120NMPERMIN/0.5S  300-1200NM  22.6C
#Date: 07/21/05   Time: 10:53:20  Operator: HS
#cwl=  4344.81A  fwhm= 1049.63A  Tmax= 74.01% at  4400.00A
#Tcutoff=  2.00 %  Slitsize = 10 A
#fwhm spans 3820.00A to 4869.63A
#90%  spans 4094.31A to 4630.66A
#bw90 is  0.511; Tmin90/Tmax is  0.900
#No data smoothing
#
#Npts=  901     Disp= 10.00A/Interval
#*****
  3000.00     0.000
  3010.00     0.000
  3020.00    -0.010
  3030.00    -0.020
  3040.00     0.005
  3050.00    -0.005
  3060.00     0.000
  3070.00     0.005
  3080.00    -0.005
  3090.00    -0.005
  3100.00    -0.005
  3110.00     0.000
  3120.00    -0.005
  3130.00     0.000
  3140.00    -0.005
  3150.00    -0.005
  3160.00     0.005
  3170.00    -0.005
  3180.00     0.005
  3190.00    -0.005
  3200.00    -0.005
  3210.00    -0.005
  3220.00    -0.005
  3230.00    -0.005
  3240.00    -0.005
  3250.00    -0.005
  3260.00    -0.005
  3270.00     0.000
  3280.00    -0.010
  3290.00    -0.010
  3300.00    -0.005
  3310.00     0.005
  3320.00    -0.010
  3330.00     0.005
  3340.00    -0.005
  3350.00    -0.005
  3360.00    -0.010
  3370.00    -0.005
  3380.00    -0.005
  3390.00     0.000
  3400.00    -0.005
  3410.00    -0.010
  3420.00     0.000
  3430.00    -0.015
  3440.00     0.000
  3450.00     0.000
  3460.00    -0.005
  3470.00    -0.005
  3480.00    -0.010
  3490.00    -0.005
  3500.00     0.000
  3510.00    -0.005
  3520.00     0.000
  3530.00     0.005
  3540.00     0.025
  3550.00     0.080
  3560.00     0.140
  3570.00     0.280
  3580.00     0.475
  3590.00     0.785
  3600.00     1.160
  3610.00     1.690
  3620.00     2.455
  3630.00     3.310
  3640.00     4.395
  3650.00     5.555
  3660.00     6.925
  3670.00     8.430
  3680.00    10.060
  3690.00    11.950
  3700.00    13.815
  3710.00    15.445
  3720.00    17.375
  3730.00    19.315
  3740.00    21.415
  3750.00    23.370
  3760.00    25.370
  3770.00    27.345
  3780.00    29.555
  3790.00    31.575
  3800.00    33.220
  3810.00    34.970
  3820.00    37.005
  3830.00    38.710
  3840.00    40.425
  3850.00    42.035
  3860.00    43.855
  3870.00    45.395
  3880.00    46.695
  3890.00    48.025
  3900.00    49.510
  3910.00    50.975
  3920.00    52.255
  3930.00    53.525
  3940.00    54.505
  3950.00    55.675
  3960.00    56.610
  3970.00    57.600
  3980.00    58.790
  3990.00    59.250
  4000.00    60.420
  4010.00    60.735
  4020.00    62.310
  4030.00    62.115
  4040.00    63.020
  4050.00    63.785
  4060.00    65.110
  4070.00    65.560
  4080.00    65.905
  4090.00    66.540
  4100.00    66.700
  4110.00    67.505
  4120.00    67.965
  4130.00    68.510
  4140.00    68.660
  4150.00    69.440
  4160.00    69.705
  4170.00    70.325
  4180.00    69.940
  4190.00    71.010
  4200.00    71.310
  4210.00    71.470
  4220.00    71.580
  4230.00    71.640
  4240.00    72.460
  4250.00    72.745
  4260.00    72.755
  4270.00    73.060
  4280.00    73.105
  4290.00    73.115
  4300.00    72.905
  4310.00    73.365
  4320.00    73.690
  4330.00    73.725
  4340.00    73.650
  4350.00    73.525
  4360.00    73.715
  4370.00    73.645
  4380.00    73.340
  4390.00    73.390
  4400.00    74.010
  4410.00    73.310
  4420.00    73.665
  4430.00    73.545
  4440.00    72.800
  4450.00    72.770
  4460.00    72.775
  4470.00    72.660
  4480.00    72.380
  4490.00    72.055
  4500.00    71.830
  4510.00    71.720
  4520.00    71.585
  4530.00    70.940
  4540.00    70.790
  4550.00    70.320
  4560.00    70.250
  4570.00    69.850
  4580.00    69.230
  4590.00    68.635
  4600.00    67.875
  4610.00    67.935
  4620.00    67.290
  4630.00    66.675
  4640.00    65.670
  4650.00    64.980
  4660.00    64.155
  4670.00    63.275
  4680.00    62.175
  4690.00    61.200
  4700.00    59.930
  4710.00    58.865
  4720.00    57.610
  4730.00    56.345
  4740.00    55.305
  4750.00    53.720
  4760.00    52.630
  4770.00    50.955
  4780.00    49.845
  4790.00    48.380
  4800.00    47.105
  4810.00    45.635
  4820.00    44.110
  4830.00    42.590
  4840.00    41.020
  4850.00    39.505
  4860.00    38.685
  4870.00    36.940
  4880.00    35.490
  4890.00    34.035
  4900.00    32.865
  4910.00    31.430
  4920.00    30.245
  4930.00    29.055
  4940.00    28.045
  4950.00    26.870
  4960.00    26.185
  4970.00    25.095
  4980.00    24.190
  4990.00    23.410
  5000.00    22.300
  5010.00    21.585
  5020.00    20.730
  5030.00    19.805
  5040.00    18.725
  5050.00    17.790
  5060.00    16.685
  5070.00    15.835
  5080.00    14.815
  5090.00    13.840
  5100.00    13.045
  5110.00    12.250
  5120.00    11.565
  5130.00    10.960
  5140.00    10.215
  5150.00     9.580
  5160.00     8.990
  5170.00     8.525
  5180.00     7.910
  5190.00     7.340
  5200.00     6.810
  5210.00     6.290
  5220.00     5.780
  5230.00     5.260
  5240.00     4.860
  5250.00     4.465
  5260.00     4.120
  5270.00     3.770
  5280.00     3.495
  5290.00     3.220
  5300.00     2.970
  5310.00     2.790
  5320.00     2.600
  5330.00     2.420
  5340.00     2.280
  5350.00     2.185
  5360.00     2.095
  5370.00     2.020
  5380.00     1.945
  5390.00     1.895
  5400.00     1.835
  5410.00     1.815
  5420.00     1.815
  5430.00     1.795
  5440.00     1.810
  5450.00     1.835
  5460.00     1.900
  5470.00     1.920
  5480.00     1.985
  5490.00     2.045
  5500.00     2.150
  5510.00     2.235
  5520.00     2.335
  5530.00     2.520
  5540.00     2.540
  5550.00     2.645
  5560.00     2.765
  5570.00     2.855
  5580.00     2.850
  5590.00     2.900
  5600.00     2.875
  5610.00     2.925
  5620.00     2.780
  5630.00     2.765
  5640.00     2.660
  5650.00     2.570
  5660.00     2.480
  5670.00     2.290
  5680.00     2.200
  5690.00     2.050
  5700.00     1.890
  5710.00     1.725
  5720.00     1.575
  5730.00     1.400
  5740.00     1.265
  5750.00     1.115
  5760.00     0.965
  5770.00     0.840
  5780.00     0.730
  5790.00     0.630
  5800.00     0.520
  5810.00     0.445
  5820.00     0.365
  5830.00     0.310
  5840.00     0.270
  5850.00     0.225
  5860.00     0.185
  5870.00     0.155
  5880.00     0.125
  5890.00     0.120
  5900.00     0.100
  5910.00     0.090
  5920.00     0.090
  5930.00     0.075
  5940.00     0.070
  5950.00     0.070
  5960.00     0.065
  5970.00     0.065
  5980.00     0.070
  5990.00     0.060
  6000.00     0.060
  6010.00     0.055
  6020.00     0.050
  6030.00     0.055
  6040.00     0.060
  6050.00     0.055
  6060.00     0.060
  6070.00     0.045
  6080.00     0.045
  6090.00     0.050
  6100.00     0.045
  6110.00     0.045
  6120.00     0.035
  6130.00     0.035
  6140.00     0.040
  6150.00     0.035
  6160.00     0.035
  6170.00     0.030
  6180.00     0.025
  6190.00     0.030
  6200.00     0.025
  6210.00     0.020
  6220.00     0.015
  6230.00     0.010
  6240.00     0.015
  6250.00     0.015
  6260.00     0.010
  6270.00     0.015
  6280.00     0.015
  6290.00     0.005
  6300.00     0.010
  6310.00     0.005
  6320.00     0.005
  6330.00     0.005
  6340.00     0.005
  6350.00     0.010
  6360.00    -0.005
  6370.00     0.000
  6380.00     0.000
  6390.00    -0.005
  6400.00    -0.010
  6410.00    -0.005
  6420.00    -0.005
  6430.00    -0.005
  6440.00     0.000
  6450.00     0.000
  6460.00     0.000
  6470.00    -0.005
  6480.00    -0.005
  6490.00     0.005
  6500.00    -0.005
  6510.00     0.000
  6520.00     0.000
  6530.00    -0.005
  6540.00    -0.005
  6550.00    -0.005
  6560.00    -0.005
  6570.00    -0.005
  6580.00    -0.005
  6590.00    -0.005
  6600.00     0.000
  6610.00     0.000
  6620.00     0.000
  6630.00     0.000
  6640.00    -0.005
  6650.00     0.000
  6660.00     0.000
  6670.00     0.000
  6680.00     0.000
  6690.00     0.005
  6700.00     0.000
  6710.00     0.000
  6720.00     0.000
  6730.00     0.000
  6740.00     0.005
  6750.00     0.000
  6760.00     0.000
  6770.00    -0.005
  6780.00    -0.005
  6790.00     0.000
  6800.00     0.000
  6810.00     0.000
  6820.00     0.000
  6830.00    -0.005
  6840.00    -0.005
  6850.00    -0.005
  6860.00     0.005
  6870.00     0.000
  6880.00     0.005
  6890.00     0.005
  6900.00     0.000
  6910.00    -0.010
  6920.00    -0.005
  6930.00    -0.005
  6940.00     0.000
  6950.00     0.005
  6960.00     0.005
  6970.00     0.000
  6980.00    -0.005
  6990.00    -0.005
  7000.00     0.000
  7010.00     0.000
  7020.00     0.000
  7030.00    -0.005
  7040.00     0.000
  7050.00     0.000
  7060.00    -0.005
  7070.00     0.000
  7080.00     0.000
  7090.00    -0.005
  7100.00    -0.005
  7110.00    -0.005
  7120.00     0.000
  7130.00    -0.010
  7140.00     0.000
  7150.00     0.000
  7160.00     0.000
  7170.00    -0.005
  7180.00    -0.005
  7190.00    -0.005
  7200.00    -0.010
  7210.00    -0.005
  7220.00    -0.005
  7230.00     0.005
  7240.00     0.000
  7250.00     0.000
  7260.00    -0.005
  7270.00    -0.005
  7280.00     0.000
  7290.00    -0.010
  7300.00    -0.005
  7310.00    -0.005
  7320.00     0.000
  7330.00    -0.005
  7340.00     0.005
  7350.00    -0.005
  7360.00    -0.010
  7370.00     0.005
  7380.00    -0.005
  7390.00    -0.005
  7400.00    -0.010
  7410.00     0.000
  7420.00     0.000
  7430.00     0.005
  7440.00    -0.010
  7450.00     0.000
  7460.00     0.000
  7470.00     0.000
  7480.00     0.010
  7490.00     0.000
  7500.00    -0.005
  7510.00    -0.005
  7520.00     0.005
  7530.00     0.005
  7540.00    -0.005
  7550.00     0.000
  7560.00     0.005
  7570.00     0.010
  7580.00    -0.005
  7590.00     0.005
  7600.00    -0.010
  7610.00    -0.005
  7620.00     0.000
  7630.00     0.010
  7640.00     0.005
  7650.00     0.000
  7660.00     0.020
  7670.00     0.005
  7680.00    -0.005
  7690.00    -0.020
  7700.00    -0.015
  7710.00    -0.010
  7720.00     0.010
  7730.00    -0.005
  7740.00    -0.015
  7750.00    -0.005
  7760.00    -0.010
  7770.00     0.000
  7780.00     0.010
  7790.00     0.005
  7800.00     0.000
  7810.00     0.015
  7820.00    -0.010
  7830.00     0.000
  7840.00     0.030
  7850.00     0.040
  7860.00     0.010
  7870.00     0.015
  7880.00     0.010
  7890.00    -0.035
  7900.00     0.005
  7910.00    -0.015
  7920.00     0.015
  7930.00     0.015
  7940.00     0.020
  7950.00    -0.010
  7960.00     0.005
  7970.00    -0.005
  7980.00     0.030
  7990.00    -0.010
  8000.00     0.035
  8010.00    -0.015
  8020.00     0.025
  8030.00     0.005
  8040.00    -0.055
  8050.00    -0.045
  8060.00     0.010
  8070.00     0.025
  8080.00     0.035
  8090.00     0.025
  8100.00     0.020
  8110.00     0.020
  8120.00     0.025
  8130.00     0.015
  8140.00     0.015
  8150.00     0.025
  8160.00     0.020
  8170.00     0.030
  8180.00     0.065
  8190.00     0.015
  8200.00    -0.010
  8210.00    -0.010
  8220.00     0.030
  8230.00     0.015
  8240.00    -0.010
  8250.00     0.030
  8260.00    -0.010
  8270.00    -0.015
  8280.00     0.010
  8290.00     0.000
  8300.00     0.015
  8310.00     0.015
  8320.00     0.020
  8330.00     0.050
  8340.00     0.015
  8350.00    -0.030
  8360.00     0.025
  8370.00     0.080
  8380.00     0.030
  8390.00     0.050
  8400.00     0.045
  8410.00     0.065
  8420.00     0.015
  8430.00     0.065
  8440.00    -0.005
  8450.00     0.015
  8460.00    -0.030
  8470.00     0.030
  8480.00    -0.045
  8490.00     0.005
  8500.00    -0.045
  8510.00     0.165
  8520.00     0.155
  8530.00     0.105
  8540.00    -0.010
  8550.00    -0.110
  8560.00     0.105
  8570.00    -0.030
  8580.00     0.235
  8590.00    -0.025
  8600.00     0.205
  8610.00     3.385
  8620.00     0.870
  8630.00     2.190
  8640.00     1.660
  8650.00    -0.980
  8660.00    -0.265
  8670.00     2.690
  8680.00     4.500
  8690.00    -0.985
  8700.00    -0.110
  8710.00     5.830
  8720.00     6.465
  8730.00     0.845
  8740.00     4.305
  8750.00     5.060
  8760.00    -1.900
  8770.00     2.610
  8780.00    -0.895
  8790.00     3.250
  8800.00    -1.685
  8810.00     5.110
  8820.00     1.490
  8830.00    -1.480
  8840.00    -4.480
  8850.00    -0.760
  8860.00     3.635
  8870.00     1.650
  8880.00     0.390
  8890.00     1.275
  8900.00     2.135
  8910.00     0.855
  8920.00    -0.690
  8930.00     2.640
  8940.00     0.005
  8950.00     0.650
  8960.00     0.900
  8970.00     0.040
  8980.00    -0.655
  8990.00     1.200
  9000.00     1.895
  9010.00     1.405
  9020.00     0.785
  9030.00     1.375
  9040.00     0.930
  9050.00     0.385
  9060.00     0.765
  9070.00     1.430
  9080.00    -0.875
  9090.00     0.850
  9100.00     0.720
  9110.00     1.135
  9120.00     1.615
  9130.00     1.205
  9140.00     1.610
  9150.00     0.970
  9160.00     0.620
  9170.00     0.150
  9180.00    -0.090
  9190.00     1.370
  9200.00     1.375
  9210.00     0.595
  9220.00     1.020
  9230.00     1.205
  9240.00     0.270
  9250.00     1.510
  9260.00     0.260
  9270.00     0.845
  9280.00     1.715
  9290.00     1.215
  9300.00     0.075
  9310.00     0.930
  9320.00     0.750
  9330.00    -0.090
  9340.00     0.460
  9350.00     0.335
  9360.00     0.305
  9370.00     0.580
  9380.00     0.550
  9390.00     0.820
  9400.00     0.275
  9410.00     0.420
  9420.00     0.640
  9430.00     0.390
  9440.00     0.345
  9450.00     0.880
  9460.00     0.645
  9470.00     0.910
  9480.00     0.075
  9490.00     0.740
  9500.00     0.800
  9510.00     0.080
  9520.00     0.020
  9530.00     0.120
  9540.00     0.375
  9550.00     0.885
  9560.00    -0.070
  9570.00     0.400
  9580.00    -0.185
  9590.00     0.080
  9600.00     0.300
  9610.00    -0.075
  9620.00     0.345
  9630.00     0.455
  9640.00    -0.320
  9650.00     0.375
  9660.00     0.410
  9670.00     0.290
  9680.00     0.790
  9690.00    -0.030
  9700.00     0.175
  9710.00     0.515
  9720.00     0.355
  9730.00     0.175
  9740.00    -0.385
  9750.00    -0.155
  9760.00     0.350
  9770.00     0.185
  9780.00     0.385
  9790.00    -0.275
  9800.00     0.285
  9810.00     0.660
  9820.00     0.425
  9830.00     0.220
  9840.00     0.180
  9850.00     0.020
  9860.00     0.000
  9870.00     0.150
  9880.00     0.005
  9890.00     0.220
  9900.00     0.285
  9910.00     0.115
  9920.00     0.175
  9930.00     0.285
  9940.00     0.235
  9950.00    -0.115
  9960.00     0.220
  9970.00    -0.060
  9980.00     0.165
  9990.00     0.380
 10000.00     0.140
 10010.00    -0.130
 10020.00     0.200
 10030.00     0.275
 10040.00     0.270
 10050.00     0.090
 10060.00     0.010
 10070.00     0.085
 10080.00     0.265
 10090.00     0.200
 10100.00     0.160
 10110.00     0.245
 10120.00     0.190
 10130.00     0.140
 10140.00     0.175
 10150.00     0.430
 10160.00     0.235
 10170.00     0.055
 10180.00     0.185
 10190.00     0.005
 10200.00     0.005
 10210.00     0.120
 10220.00     0.115
 10230.00     0.215
 10240.00     0.085
 10250.00     0.215
 10260.00     0.340
 10270.00     0.245
 10280.00     0.005
 10290.00     0.070
 10300.00     0.320
 10310.00     0.050
 10320.00     0.175
 10330.00     0.330
 10340.00     0.200
 10350.00     0.290
 10360.00     0.205
 10370.00    -0.085
 10380.00    -0.010
 10390.00    -0.090
 10400.00     0.105
 10410.00     0.130
 10420.00     0.130
 10430.00     0.160
 10440.00     0.195
 10450.00     0.240
 10460.00     0.285
 10470.00     0.210
 10480.00     0.140
 10490.00     0.300
 10500.00     0.205
 10510.00     0.110
 10520.00     0.040
 10530.00     0.095
 10540.00     0.135
 10550.00     0.145
 10560.00    -0.035
 10570.00    -0.105
 10580.00    -0.125
 10590.00    -0.025
 10600.00     0.255
 10610.00     0.095
 10620.00     0.230
 10630.00     0.190
 10640.00     0.060
 10650.00    -0.075
 10660.00     0.115
 10670.00     0.040
 10680.00     0.070
 10690.00     0.130
 10700.00    -0.025
 10710.00    -0.250
 10720.00     0.020
 10730.00    -0.160
 10740.00     0.065
 10750.00     0.190
 10760.00     0.145
 10770.00     0.070
 10780.00     0.260
 10790.00     0.090
 10800.00     0.130
 10810.00    -0.055
 10820.00     0.055
 10830.00     0.000
 10840.00     0.070
 10850.00    -0.090
 10860.00     0.150
 10870.00    -0.050
 10880.00     0.005
 10890.00     0.155
 10900.00     0.000
 10910.00     0.165
 10920.00     0.120
 10930.00     0.040
 10940.00     0.150
 10950.00     0.190
 10960.00     0.210
 10970.00     0.135
 10980.00     0.085
 10990.00     0.085
 11000.00    -0.030
 11010.00     0.055
 11020.00     0.060
 11030.00     0.010
 11040.00     0.090
 11050.00    -0.060
 11060.00     0.030
 11070.00     0.135
 11080.00     0.165
 11090.00     0.000
 11100.00     0.280
 11110.00     0.030
 11120.00     0.070
 11130.00     0.020
 11140.00     0.100
 11150.00     0.155
 11160.00     0.000
 11170.00     0.110
 11180.00     0.040
 11190.00     0.005
 11200.00     0.035
 11210.00     0.180
 11220.00     0.080
 11230.00     0.145
 11240.00     0.040
 11250.00     0.065
 11260.00     0.035
 11270.00     0.010
 11280.00     0.170
 11290.00     0.030
 11300.00     0.235
 11310.00     0.010
 11320.00     0.155
 11330.00     0.080
 11340.00     0.120
 11350.00    -0.010
 11360.00    -0.005
 11370.00     0.020
 11380.00    -0.060
 11390.00     0.265
 11400.00     0.175
 11410.00     0.055
 11420.00    -0.010
 11430.00     0.115
 11440.00     0.195
 11450.00     0.150
 11460.00     0.095
 11470.00    -0.040
 11480.00     0.060
 11490.00     0.225
 11500.00     0.000
 11510.00    -0.100
 11520.00     0.025
 11530.00     0.035
 11540.00     0.095
 11550.00     0.010
 11560.00     0.025
 11570.00    -0.040
 11580.00     0.010
 11590.00    -0.050
 11600.00    -0.090
 11610.00     0.030
 11620.00    -0.030
 11630.00     0.120
 11640.00     0.060
 11650.00     0.015
 11660.00     0.110
 11670.00    -0.005
 11680.00     0.060
 11690.00     0.050
 11700.00    -0.020
 11710.00     0.040
 11720.00     0.005
 11730.00     0.105
 11740.00     0.105
 11750.00     0.160
 11760.00     0.050
 11770.00     0.095
 11780.00     0.175
 11790.00     0.125
 11800.00    -0.040
 11810.00     0.095
 11820.00     0.160
 11830.00     0.030
 11840.00    -0.065
 11850.00     0.025
 11860.00    -0.140
 11870.00    -0.050
 11880.00    -0.250
 11890.00    -0.580
 11900.00    -0.405
 11910.00    -0.015
 11920.00     0.160
 11930.00    -0.005
 11940.00    -0.030
 11950.00     0.125
 11960.00     0.150
 11970.00     0.115
 11980.00     0.035
 11990.00     0.195
 12000.00     0.145

