#== Filter Data - Lambda 9 Spectrophotometer ==
#  Kitt Peak National Observatory - NOAO
#------------------------------------------------
#Filter: 1NM/120NMPERMIN/0.5S  300-1200NM  23.0
#Date: 07/21/05   Time: 10:53:02  Operator: HS
#cwl=  6307.57A  fwhm= 1208.91A  Tmax= 82.44% at  6000.00A
#Tcutoff=  2.00 %  Slitsize = 10 A
#fwhm spans 5703.11A to 6912.03A
#90%  spans 5806.51A to 6249.96A
#bw90 is  0.367; Tmin90/Tmax is  0.900
#No data smoothing
#
#Npts=  901     Disp= 10.00A/Interval
#*****
  3000.00     0.000
  3010.00     0.000
  3020.00     0.000
  3030.00    -0.005
  3040.00     0.005
  3050.00    -0.010
  3060.00    -0.010
  3070.00    -0.005
  3080.00     0.000
  3090.00     0.000
  3100.00    -0.005
  3110.00     0.005
  3120.00     0.005
  3130.00     0.000
  3140.00     0.005
  3150.00    -0.005
  3160.00     0.000
  3170.00     0.000
  3180.00     0.000
  3190.00    -0.010
  3200.00    -0.005
  3210.00    -0.005
  3220.00     0.000
  3230.00     0.000
  3240.00     0.000
  3250.00     0.000
  3260.00    -0.005
  3270.00     0.000
  3280.00    -0.005
  3290.00     0.005
  3300.00     0.000
  3310.00    -0.005
  3320.00    -0.005
  3330.00     0.000
  3340.00     0.000
  3350.00    -0.005
  3360.00     0.000
  3370.00    -0.010
  3380.00    -0.005
  3390.00     0.000
  3400.00    -0.005
  3410.00     0.000
  3420.00     0.000
  3430.00     0.000
  3440.00     0.000
  3450.00     0.005
  3460.00     0.000
  3470.00     0.000
  3480.00    -0.005
  3490.00     0.000
  3500.00     0.000
  3510.00     0.000
  3520.00    -0.010
  3530.00    -0.005
  3540.00    -0.005
  3550.00     0.000
  3560.00     0.000
  3570.00     0.000
  3580.00     0.000
  3590.00     0.000
  3600.00    -0.005
  3610.00    -0.005
  3620.00    -0.005
  3630.00     0.000
  3640.00    -0.005
  3650.00    -0.005
  3660.00     0.000
  3670.00    -0.005
  3680.00     0.000
  3690.00    -0.005
  3700.00    -0.005
  3710.00     0.000
  3720.00     0.000
  3730.00     0.000
  3740.00     0.000
  3750.00    -0.005
  3760.00     0.005
  3770.00    -0.005
  3780.00    -0.025
  3790.00     0.000
  3800.00     0.000
  3810.00     0.000
  3820.00     0.005
  3830.00     0.000
  3840.00     0.005
  3850.00     0.000
  3860.00    -0.005
  3870.00    -0.005
  3880.00     0.000
  3890.00    -0.005
  3900.00     0.000
  3910.00     0.000
  3920.00     0.000
  3930.00     0.000
  3940.00     0.005
  3950.00     0.000
  3960.00    -0.005
  3970.00    -0.005
  3980.00    -0.005
  3990.00     0.000
  4000.00    -0.005
  4010.00    -0.005
  4020.00    -0.005
  4030.00     0.000
  4040.00     0.000
  4050.00     0.005
  4060.00     0.000
  4070.00     0.000
  4080.00    -0.005
  4090.00     0.010
  4100.00     0.005
  4110.00     0.000
  4120.00    -0.005
  4130.00     0.005
  4140.00     0.000
  4150.00     0.000
  4160.00     0.000
  4170.00    -0.005
  4180.00     0.000
  4190.00     0.000
  4200.00    -0.005
  4210.00    -0.005
  4220.00     0.000
  4230.00     0.000
  4240.00     0.000
  4250.00     0.000
  4260.00     0.000
  4270.00     0.000
  4280.00     0.005
  4290.00    -0.005
  4300.00     0.005
  4310.00     0.005
  4320.00     0.000
  4330.00    -0.005
  4340.00     0.000
  4350.00     0.000
  4360.00    -0.005
  4370.00     0.005
  4380.00    -0.005
  4390.00     0.005
  4400.00    -0.005
  4410.00    -0.005
  4420.00     0.000
  4430.00     0.000
  4440.00    -0.005
  4450.00    -0.005
  4460.00    -0.005
  4470.00     0.000
  4480.00     0.000
  4490.00     0.000
  4500.00    -0.005
  4510.00    -0.005
  4520.00     0.000
  4530.00     0.000
  4540.00    -0.005
  4550.00     0.000
  4560.00     0.000
  4570.00     0.000
  4580.00     0.000
  4590.00    -0.005
  4600.00    -0.005
  4610.00     0.000
  4620.00     0.000
  4630.00    -0.005
  4640.00     0.000
  4650.00    -0.005
  4660.00     0.000
  4670.00    -0.005
  4680.00     0.000
  4690.00    -0.005
  4700.00     0.000
  4710.00     0.000
  4720.00    -0.005
  4730.00    -0.005
  4740.00     0.000
  4750.00    -0.005
  4760.00    -0.005
  4770.00    -0.005
  4780.00     0.000
  4790.00     0.000
  4800.00     0.000
  4810.00    -0.005
  4820.00    -0.005
  4830.00    -0.005
  4840.00    -0.005
  4850.00    -0.005
  4860.00     0.000
  4870.00    -0.005
  4880.00     0.000
  4890.00     0.000
  4900.00    -0.005
  4910.00    -0.005
  4920.00    -0.010
  4930.00    -0.005
  4940.00    -0.005
  4950.00    -0.005
  4960.00     0.000
  4970.00    -0.005
  4980.00     0.000
  4990.00    -0.005
  5000.00     0.000
  5010.00    -0.005
  5020.00     0.000
  5030.00    -0.005
  5040.00     0.000
  5050.00     0.000
  5060.00     0.000
  5070.00     0.000
  5080.00    -0.005
  5090.00    -0.005
  5100.00    -0.005
  5110.00    -0.005
  5120.00    -0.005
  5130.00     0.000
  5140.00    -0.005
  5150.00     0.000
  5160.00    -0.005
  5170.00     0.000
  5180.00    -0.005
  5190.00     0.000
  5200.00     0.000
  5210.00     0.000
  5220.00    -0.010
  5230.00    -0.005
  5240.00     0.000
  5250.00    -0.005
  5260.00     0.000
  5270.00     0.000
  5280.00    -0.005
  5290.00    -0.005
  5300.00     0.000
  5310.00     0.000
  5320.00     0.000
  5330.00     0.000
  5340.00    -0.005
  5350.00    -0.005
  5360.00     0.005
  5370.00     0.000
  5380.00     0.000
  5390.00     0.000
  5400.00     0.005
  5410.00     0.005
  5420.00     0.005
  5430.00     0.005
  5440.00     0.010
  5450.00     0.010
  5460.00     0.010
  5470.00     0.020
  5480.00     0.020
  5490.00     0.035
  5500.00     0.055
  5510.00     0.075
  5520.00     0.115
  5530.00     0.175
  5540.00     0.275
  5550.00     0.420
  5560.00     0.650
  5570.00     1.050
  5580.00     1.590
  5590.00     2.380
  5600.00     3.495
  5610.00     5.120
  5620.00     7.225
  5630.00     9.675
  5640.00    12.940
  5650.00    16.490
  5660.00    20.780
  5670.00    25.285
  5680.00    30.220
  5690.00    34.955
  5700.00    39.780
  5710.00    44.395
  5720.00    49.010
  5730.00    53.105
  5740.00    57.095
  5750.00    60.260
  5760.00    63.685
  5770.00    66.485
  5780.00    69.475
  5790.00    71.450
  5800.00    72.890
  5810.00    74.890
  5820.00    75.990
  5830.00    77.205
  5840.00    78.235
  5850.00    79.330
  5860.00    79.980
  5870.00    80.800
  5880.00    81.205
  5890.00    81.285
  5900.00    81.700
  5910.00    81.635
  5920.00    82.265
  5930.00    82.240
  5940.00    82.185
  5950.00    81.995
  5960.00    82.290
  5970.00    81.995
  5980.00    81.760
  5990.00    81.680
  6000.00    82.435
  6010.00    81.540
  6020.00    81.550
  6030.00    81.570
  6040.00    80.935
  6050.00    80.735
  6060.00    80.935
  6070.00    80.585
  6080.00    80.110
  6090.00    80.340
  6100.00    79.770
  6110.00    79.455
  6120.00    78.950
  6130.00    78.315
  6140.00    78.255
  6150.00    78.120
  6160.00    78.035
  6170.00    77.535
  6180.00    76.680
  6190.00    76.615
  6200.00    76.170
  6210.00    75.400
  6220.00    75.390
  6230.00    75.190
  6240.00    74.525
  6250.00    74.190
  6260.00    74.085
  6270.00    73.655
  6280.00    73.145
  6290.00    72.445
  6300.00    72.035
  6310.00    71.240
  6320.00    70.895
  6330.00    70.745
  6340.00    70.510
  6350.00    70.430
  6360.00    69.800
  6370.00    68.920
  6380.00    68.130
  6390.00    68.280
  6400.00    67.760
  6410.00    66.775
  6420.00    66.420
  6430.00    65.975
  6440.00    65.980
  6450.00    65.480
  6460.00    64.675
  6470.00    64.305
  6480.00    63.945
  6490.00    63.355
  6500.00    62.785
  6510.00    62.350
  6520.00    61.430
  6530.00    61.185
  6540.00    60.945
  6550.00    60.075
  6560.00    59.605
  6570.00    59.430
  6580.00    58.870
  6590.00    57.790
  6600.00    57.665
  6610.00    57.460
  6620.00    56.565
  6630.00    56.385
  6640.00    55.195
  6650.00    54.675
  6660.00    54.720
  6670.00    53.940
  6680.00    53.875
  6690.00    53.200
  6700.00    52.640
  6710.00    52.250
  6720.00    51.305
  6730.00    51.355
  6740.00    50.095
  6750.00    49.600
  6760.00    49.390
  6770.00    48.910
  6780.00    48.515
  6790.00    47.890
  6800.00    47.550
  6810.00    46.905
  6820.00    46.270
  6830.00    45.565
  6840.00    44.935
  6850.00    44.630
  6860.00    44.340
  6870.00    43.765
  6880.00    42.795
  6890.00    42.520
  6900.00    41.945
  6910.00    41.320
  6920.00    40.815
  6930.00    39.505
  6940.00    39.265
  6950.00    38.985
  6960.00    38.245
  6970.00    37.930
  6980.00    37.240
  6990.00    36.845
  7000.00    36.505
  7010.00    35.975
  7020.00    35.140
  7030.00    34.685
  7040.00    34.190
  7050.00    33.775
  7060.00    33.200
  7070.00    32.985
  7080.00    32.040
  7090.00    31.910
  7100.00    31.205
  7110.00    30.440
  7120.00    30.160
  7130.00    30.240
  7140.00    29.250
  7150.00    28.805
  7160.00    28.335
  7170.00    28.240
  7180.00    27.195
  7190.00    27.190
  7200.00    26.780
  7210.00    26.475
  7220.00    25.545
  7230.00    25.045
  7240.00    24.755
  7250.00    24.760
  7260.00    23.790
  7270.00    23.260
  7280.00    22.775
  7290.00    22.740
  7300.00    21.980
  7310.00    21.895
  7320.00    21.480
  7330.00    20.880
  7340.00    20.830
  7350.00    20.300
  7360.00    19.955
  7370.00    19.405
  7380.00    18.965
  7390.00    18.710
  7400.00    18.625
  7410.00    17.905
  7420.00    17.595
  7430.00    17.640
  7440.00    17.010
  7450.00    16.490
  7460.00    16.455
  7470.00    15.540
  7480.00    15.485
  7490.00    15.250
  7500.00    15.085
  7510.00    14.920
  7520.00    14.430
  7530.00    14.055
  7540.00    13.545
  7550.00    13.520
  7560.00    13.400
  7570.00    12.685
  7580.00    12.510
  7590.00    12.335
  7600.00    12.085
  7610.00    11.755
  7620.00    11.480
  7630.00    11.090
  7640.00    10.910
  7650.00    10.605
  7660.00    10.510
  7670.00    10.380
  7680.00     9.920
  7690.00     9.710
  7700.00     9.555
  7710.00     9.245
  7720.00     9.035
  7730.00     8.660
  7740.00     8.865
  7750.00     8.060
  7760.00     8.120
  7770.00     8.135
  7780.00     7.830
  7790.00     7.365
  7800.00     7.490
  7810.00     7.135
  7820.00     7.005
  7830.00     6.475
  7840.00     6.480
  7850.00     6.425
  7860.00     6.395
  7870.00     6.090
  7880.00     5.845
  7890.00     5.650
  7900.00     5.720
  7910.00     5.640
  7920.00     5.385
  7930.00     5.215
  7940.00     4.885
  7950.00     4.755
  7960.00     4.690
  7970.00     4.705
  7980.00     4.485
  7990.00     4.375
  8000.00     4.300
  8010.00     4.165
  8020.00     3.990
  8030.00     3.755
  8040.00     3.700
  8050.00     3.780
  8060.00     3.765
  8070.00     3.500
  8080.00     3.135
  8090.00     3.125
  8100.00     3.040
  8110.00     2.915
  8120.00     2.830
  8130.00     2.865
  8140.00     2.860
  8150.00     2.670
  8160.00     2.520
  8170.00     2.570
  8180.00     2.465
  8190.00     2.270
  8200.00     2.450
  8210.00     2.315
  8220.00     2.195
  8230.00     2.125
  8240.00     2.195
  8250.00     1.960
  8260.00     2.035
  8270.00     1.785
  8280.00     1.770
  8290.00     1.810
  8300.00     1.895
  8310.00     1.690
  8320.00     1.600
  8330.00     1.400
  8340.00     1.505
  8350.00     1.590
  8360.00     1.395
  8370.00     1.240
  8380.00     1.325
  8390.00     1.185
  8400.00     1.155
  8410.00     1.110
  8420.00     1.140
  8430.00     1.065
  8440.00     0.990
  8450.00     1.175
  8460.00     1.020
  8470.00     1.125
  8480.00     0.860
  8490.00     0.930
  8500.00     0.725
  8510.00     0.805
  8520.00     0.845
  8530.00     0.965
  8540.00     0.945
  8550.00     0.800
  8560.00     0.735
  8570.00     0.850
  8580.00     0.655
  8590.00     0.825
  8600.00     0.620
  8610.00     0.740
  8620.00     3.975
  8630.00     9.285
  8640.00     3.090
  8650.00     0.135
  8660.00    -3.315
  8670.00     0.485
  8680.00     1.735
  8690.00    -0.175
  8700.00     2.425
  8710.00     0.115
  8720.00     3.010
  8730.00     4.940
  8740.00     2.880
  8750.00     3.025
  8760.00     1.440
  8770.00     1.460
  8780.00     5.395
  8790.00     2.875
  8800.00     3.410
  8810.00     3.340
  8820.00     5.285
  8830.00    -2.035
  8840.00     2.840
  8850.00     2.650
  8860.00     2.625
  8870.00     2.610
  8880.00     1.900
  8890.00     5.230
  8900.00     3.270
  8910.00     0.425
  8920.00     1.235
  8930.00     3.550
  8940.00     3.050
  8950.00     2.525
  8960.00     1.700
  8970.00     1.525
  8980.00     2.395
  8990.00     1.920
  9000.00     1.845
  9010.00     1.685
  9020.00     2.040
  9030.00    -0.840
  9040.00     1.205
  9050.00     2.160
  9060.00     2.520
  9070.00     2.990
  9080.00    -0.150
  9090.00    -0.280
  9100.00     0.980
  9110.00     0.560
  9120.00     0.915
  9130.00     1.095
  9140.00     0.480
  9150.00     1.490
  9160.00     1.175
  9170.00     2.505
  9180.00     0.855
  9190.00     0.620
  9200.00     0.750
  9210.00     1.090
  9220.00     0.590
  9230.00     0.905
  9240.00     1.470
  9250.00     0.940
  9260.00     1.105
  9270.00     0.320
  9280.00     1.450
  9290.00     0.415
  9300.00     0.700
  9310.00     0.375
  9320.00    -0.385
  9330.00     0.455
  9340.00    -0.165
  9350.00     0.250
  9360.00     0.895
  9370.00    -0.165
  9380.00     0.660
  9390.00     1.115
  9400.00     0.460
  9410.00     1.350
  9420.00     0.360
  9430.00     1.515
  9440.00     1.005
  9450.00     1.195
  9460.00     1.025
  9470.00     0.720
  9480.00     0.245
  9490.00     0.300
  9500.00     0.830
  9510.00     0.480
  9520.00     0.645
  9530.00     0.600
  9540.00     0.965
  9550.00     0.655
  9560.00     0.320
  9570.00     0.590
  9580.00     0.465
  9590.00     0.515
  9600.00     0.485
  9610.00     0.310
  9620.00     0.145
  9630.00     0.455
  9640.00     0.665
  9650.00     0.430
  9660.00     0.420
  9670.00     0.495
  9680.00     0.645
  9690.00     0.410
  9700.00     0.165
  9710.00     0.615
  9720.00     0.345
  9730.00     0.475
  9740.00     0.460
  9750.00     0.325
  9760.00     0.440
  9770.00     0.575
  9780.00     0.630
  9790.00     0.395
  9800.00     0.765
  9810.00     0.455
  9820.00     0.360
  9830.00    -0.055
  9840.00     0.130
  9850.00     0.200
  9860.00     0.380
  9870.00     0.360
  9880.00     0.055
  9890.00     0.415
  9900.00     0.490
  9910.00     0.360
  9920.00     0.320
  9930.00     0.075
  9940.00     0.340
  9950.00     0.275
  9960.00     0.545
  9970.00     0.475
  9980.00     0.440
  9990.00     0.240
 10000.00     0.145
 10010.00     0.455
 10020.00     0.470
 10030.00     0.305
 10040.00     0.035
 10050.00     0.305
 10060.00     0.260
 10070.00     0.145
 10080.00     0.295
 10090.00     0.465
 10100.00     0.310
 10110.00     0.245
 10120.00     0.205
 10130.00     0.380
 10140.00     0.325
 10150.00     0.425
 10160.00     0.335
 10170.00     0.385
 10180.00     0.305
 10190.00     0.270
 10200.00     0.135
 10210.00     0.230
 10220.00     0.085
 10230.00     0.235
 10240.00     0.375
 10250.00     0.510
 10260.00     0.330
 10270.00     0.155
 10280.00     0.385
 10290.00    -0.065
 10300.00     0.200
 10310.00     0.140
 10320.00     0.230
 10330.00     0.345
 10340.00     0.415
 10350.00     0.335
 10360.00     0.315
 10370.00     0.135
 10380.00     0.100
 10390.00     0.240
 10400.00     0.165
 10410.00     0.175
 10420.00     0.370
 10430.00     0.235
 10440.00     0.195
 10450.00     0.250
 10460.00     0.240
 10470.00     0.230
 10480.00     0.010
 10490.00     0.080
 10500.00     0.320
 10510.00     0.280
 10520.00     0.170
 10530.00     0.215
 10540.00     0.175
 10550.00     0.280
 10560.00     0.015
 10570.00     0.115
 10580.00     0.445
 10590.00     0.180
 10600.00     0.275
 10610.00     0.095
 10620.00     0.285
 10630.00     0.225
 10640.00     0.220
 10650.00     0.150
 10660.00     0.205
 10670.00     0.395
 10680.00     0.265
 10690.00     0.175
 10700.00     0.090
 10710.00     0.150
 10720.00     0.025
 10730.00    -0.015
 10740.00     0.045
 10750.00    -0.065
 10760.00     0.100
 10770.00    -0.050
 10780.00     0.100
 10790.00    -0.015
 10800.00     0.080
 10810.00     0.005
 10820.00     0.285
 10830.00     0.270
 10840.00     0.275
 10850.00     0.085
 10860.00     0.395
 10870.00    -0.010
 10880.00     0.190
 10890.00     0.035
 10900.00     0.135
 10910.00     0.070
 10920.00     0.155
 10930.00    -0.065
 10940.00     0.090
 10950.00     0.060
 10960.00     0.115
 10970.00     0.210
 10980.00     0.065
 10990.00     0.170
 11000.00     0.300
 11010.00     0.250
 11020.00     0.155
 11030.00     0.220
 11040.00     0.120
 11050.00     0.070
 11060.00     0.105
 11070.00     0.175
 11080.00     0.120
 11090.00     0.100
 11100.00     0.055
 11110.00     0.100
 11120.00     0.195
 11130.00     0.030
 11140.00     0.090
 11150.00     0.180
 11160.00     0.075
 11170.00     0.150
 11180.00     0.070
 11190.00     0.065
 11200.00     0.100
 11210.00     0.300
 11220.00     0.015
 11230.00     0.075
 11240.00     0.165
 11250.00     0.085
 11260.00    -0.030
 11270.00     0.185
 11280.00     0.050
 11290.00     0.205
 11300.00     0.080
 11310.00     0.040
 11320.00     0.155
 11330.00     0.000
 11340.00     0.160
 11350.00     0.045
 11360.00     0.005
 11370.00     0.045
 11380.00     0.120
 11390.00     0.370
 11400.00     0.405
 11410.00     0.060
 11420.00     0.145
 11430.00     0.040
 11440.00     0.020
 11450.00     0.315
 11460.00     0.125
 11470.00     0.055
 11480.00     0.105
 11490.00     0.085
 11500.00     0.185
 11510.00     0.180
 11520.00     0.155
 11530.00     0.195
 11540.00     0.190
 11550.00     0.030
 11560.00     0.075
 11570.00     0.220
 11580.00     0.100
 11590.00    -0.075
 11600.00    -0.035
 11610.00     0.090
 11620.00     0.090
 11630.00     0.025
 11640.00     0.070
 11650.00    -0.010
 11660.00     0.020
 11670.00    -0.005
 11680.00    -0.090
 11690.00     0.055
 11700.00    -0.065
 11710.00     0.070
 11720.00     0.115
 11730.00     0.000
 11740.00     0.105
 11750.00     0.185
 11760.00    -0.025
 11770.00     0.055
 11780.00     0.035
 11790.00     0.165
 11800.00     0.260
 11810.00     0.075
 11820.00     0.145
 11830.00     0.060
 11840.00     0.020
 11850.00    -0.020
 11860.00    -0.065
 11870.00    -0.190
 11880.00    -0.155
 11890.00    -0.595
 11900.00    -0.415
 11910.00     0.110
 11920.00     0.085
 11930.00     0.220
 11940.00    -0.010
 11950.00     0.215
 11960.00     0.215
 11970.00     0.100
 11980.00     0.035
 11990.00     0.030
 12000.00     0.115

