#== Filter Data - Lambda 9 Spectrophotometer ==
#  Kitt Peak National Observatory - NOAO
#------------------------------------------------
#Filter: .5NM/60NMPERMIN/0.5S  6500-1000A 25.3C
#Date: 08/09/05   Time: 16:39:00  Operator: HS
#cwl=  8246.12A  fwhm= 1989.64A  Tmax= 91.65% at  7705.00A
#Tcutoff=  2.00 %  Slitsize =  5 A
#fwhm spans 7251.30A to 9240.94A
#90%  spans 7585.23A to 8805.75A
#bw90 is  0.613; Tmin90/Tmax is  0.874
#No data smoothing
#
#Npts=  701     Disp=  5.00A/Interval
#*****
  6500.00    -0.005
  6505.00    -0.005
  6510.00    -0.005
  6515.00    -0.005
  6520.00     0.000
  6525.00    -0.005
  6530.00     0.000
  6535.00     0.000
  6540.00    -0.005
  6545.00     0.000
  6550.00    -0.005
  6555.00     0.000
  6560.00     0.000
  6565.00    -0.005
  6570.00    -0.005
  6575.00     0.000
  6580.00    -0.005
  6585.00    -0.005
  6590.00     0.000
  6595.00    -0.005
  6600.00     0.000
  6605.00     0.000
  6610.00    -0.005
  6615.00    -0.005
  6620.00    -0.005
  6625.00     0.000
  6630.00     0.000
  6635.00    -0.005
  6640.00    -0.005
  6645.00     0.000
  6650.00    -0.005
  6655.00     0.000
  6660.00    -0.005
  6665.00     0.000
  6670.00    -0.005
  6675.00    -0.005
  6680.00     0.000
  6685.00    -0.005
  6690.00    -0.005
  6695.00    -0.005
  6700.00     0.000
  6705.00    -0.005
  6710.00     0.000
  6715.00     0.000
  6720.00     0.000
  6725.00     0.000
  6730.00     0.000
  6735.00    -0.005
  6740.00     0.000
  6745.00    -0.005
  6750.00    -0.005
  6755.00     0.000
  6760.00     0.000
  6765.00    -0.005
  6770.00    -0.005
  6775.00    -0.005
  6780.00     0.000
  6785.00    -0.005
  6790.00     0.000
  6795.00     0.000
  6800.00     0.000
  6805.00     0.000
  6810.00    -0.005
  6815.00     0.000
  6820.00     0.000
  6825.00     0.000
  6830.00     0.000
  6835.00     0.000
  6840.00    -0.005
  6845.00    -0.005
  6850.00     0.000
  6855.00    -0.005
  6860.00    -0.005
  6865.00     0.000
  6870.00     0.000
  6875.00     0.000
  6880.00     0.000
  6885.00     0.000
  6890.00     0.000
  6895.00     0.005
  6900.00     0.000
  6905.00     0.000
  6910.00     0.005
  6915.00     0.005
  6920.00     0.010
  6925.00     0.015
  6930.00     0.015
  6935.00     0.020
  6940.00     0.025
  6945.00     0.050
  6950.00     0.060
  6955.00     0.080
  6960.00     0.115
  6965.00     0.140
  6970.00     0.180
  6975.00     0.225
  6980.00     0.290
  6985.00     0.355
  6990.00     0.420
  6995.00     0.535
  7000.00     0.645
  7005.00     0.780
  7010.00     0.935
  7015.00     1.120
  7020.00     1.360
  7025.00     1.580
  7030.00     1.835
  7035.00     2.100
  7040.00     2.465
  7045.00     2.850
  7050.00     3.230
  7055.00     3.715
  7060.00     4.200
  7065.00     4.750
  7070.00     5.345
  7075.00     6.005
  7080.00     6.645
  7085.00     7.380
  7090.00     8.190
  7095.00     9.030
  7100.00     9.790
  7105.00    10.830
  7110.00    11.805
  7115.00    12.815
  7120.00    13.870
  7125.00    14.965
  7130.00    16.040
  7135.00    17.290
  7140.00    18.365
  7145.00    19.565
  7150.00    20.845
  7155.00    22.250
  7160.00    23.560
  7165.00    24.770
  7170.00    26.025
  7175.00    27.435
  7180.00    28.850
  7185.00    29.845
  7190.00    31.450
  7195.00    32.795
  7200.00    34.090
  7205.00    35.275
  7210.00    36.510
  7215.00    37.555
  7220.00    38.985
  7225.00    40.125
  7230.00    41.500
  7235.00    42.445
  7240.00    43.540
  7245.00    44.590
  7250.00    45.495
  7255.00    46.760
  7260.00    47.545
  7265.00    48.330
  7270.00    49.200
  7275.00    49.860
  7280.00    50.890
  7285.00    51.775
  7290.00    52.280
  7295.00    53.145
  7300.00    53.965
  7305.00    54.180
  7310.00    54.840
  7315.00    55.115
  7320.00    55.975
  7325.00    56.725
  7330.00    57.205
  7335.00    57.670
  7340.00    58.370
  7345.00    58.520
  7350.00    58.875
  7355.00    59.445
  7360.00    59.855
  7365.00    60.145
  7370.00    60.615
  7375.00    61.275
  7380.00    61.510
  7385.00    61.960
  7390.00    62.250
  7395.00    63.105
  7400.00    63.005
  7405.00    63.405
  7410.00    63.395
  7415.00    64.360
  7420.00    63.970
  7425.00    64.825
  7430.00    65.650
  7435.00    65.845
  7440.00    65.905
  7445.00    66.200
  7450.00    66.910
  7455.00    67.735
  7460.00    68.020
  7465.00    68.000
  7470.00    68.830
  7475.00    69.130
  7480.00    69.720
  7485.00    70.290
  7490.00    70.860
  7495.00    71.585
  7500.00    72.405
  7505.00    72.535
  7510.00    73.175
  7515.00    73.720
  7520.00    74.375
  7525.00    75.245
  7530.00    75.655
  7535.00    76.325
  7540.00    77.190
  7545.00    77.795
  7550.00    77.910
  7555.00    78.995
  7560.00    79.655
  7565.00    80.140
  7570.00    80.555
  7575.00    81.535
  7580.00    81.605
  7585.00    82.460
  7590.00    83.005
  7595.00    83.485
  7600.00    84.075
  7605.00    84.785
  7610.00    85.880
  7615.00    86.185
  7620.00    85.940
  7625.00    87.265
  7630.00    87.670
  7635.00    87.950
  7640.00    88.230
  7645.00    88.945
  7650.00    89.130
  7655.00    89.465
  7660.00    89.940
  7665.00    89.840
  7670.00    90.395
  7675.00    90.555
  7680.00    90.445
  7685.00    91.135
  7690.00    91.115
  7695.00    91.315
  7700.00    90.850
  7705.00    91.650
  7710.00    90.895
  7715.00    91.550
  7720.00    91.480
  7725.00    91.510
  7730.00    90.970
  7735.00    90.135
  7740.00    91.015
  7745.00    89.640
  7750.00    90.230
  7755.00    89.650
  7760.00    89.715
  7765.00    89.415
  7770.00    88.870
  7775.00    88.185
  7780.00    89.045
  7785.00    87.985
  7790.00    87.870
  7795.00    88.095
  7800.00    87.125
  7805.00    87.310
  7810.00    86.755
  7815.00    86.475
  7820.00    86.100
  7825.00    85.940
  7830.00    85.385
  7835.00    85.360
  7840.00    84.580
  7845.00    84.115
  7850.00    83.840
  7855.00    83.895
  7860.00    83.825
  7865.00    83.365
  7870.00    83.085
  7875.00    83.230
  7880.00    82.390
  7885.00    82.750
  7890.00    82.355
  7895.00    82.090
  7900.00    81.790
  7905.00    81.955
  7910.00    81.580
  7915.00    81.235
  7920.00    81.655
  7925.00    81.330
  7930.00    81.025
  7935.00    80.400
  7940.00    80.355
  7945.00    81.095
  7950.00    81.070
  7955.00    80.665
  7960.00    80.520
  7965.00    80.165
  7970.00    81.075
  7975.00    80.285
  7980.00    80.125
  7985.00    80.610
  7990.00    81.235
  7995.00    80.895
  8000.00    80.765
  8005.00    80.995
  8010.00    81.395
  8015.00    81.165
  8020.00    80.840
  8025.00    81.500
  8030.00    80.945
  8035.00    82.605
  8040.00    81.365
  8045.00    81.680
  8050.00    82.385
  8055.00    82.070
  8060.00    82.520
  8065.00    82.635
  8070.00    83.305
  8075.00    82.545
  8080.00    81.980
  8085.00    83.560
  8090.00    83.550
  8095.00    82.570
  8100.00    82.555
  8105.00    83.635
  8110.00    83.065
  8115.00    83.945
  8120.00    83.285
  8125.00    84.190
  8130.00    85.115
  8135.00    84.720
  8140.00    84.810
  8145.00    84.780
  8150.00    85.420
  8155.00    85.735
  8160.00    85.030
  8165.00    83.930
  8170.00    85.555
  8175.00    85.690
  8180.00    84.855
  8185.00    84.950
  8190.00    84.385
  8195.00    84.860
  8200.00    85.525
  8205.00    85.205
  8210.00    85.115
  8215.00    85.285
  8220.00    85.405
  8225.00    85.885
  8230.00    86.700
  8235.00    85.905
  8240.00    85.240
  8245.00    85.455
  8250.00    86.140
  8255.00    85.780
  8260.00    86.245
  8265.00    86.450
  8270.00    86.240
  8275.00    85.315
  8280.00    85.895
  8285.00    87.190
  8290.00    86.660
  8295.00    85.465
  8300.00    85.850
  8305.00    87.425
  8310.00    85.935
  8315.00    84.975
  8320.00    85.305
  8325.00    86.605
  8330.00    86.895
  8335.00    85.160
  8340.00    85.650
  8345.00    85.475
  8350.00    86.160
  8355.00    86.285
  8360.00    86.905
  8365.00    87.195
  8370.00    85.505
  8375.00    86.800
  8380.00    87.120
  8385.00    86.870
  8390.00    85.840
  8395.00    87.425
  8400.00    86.905
  8405.00    85.900
  8410.00    88.800
  8415.00    87.580
  8420.00    87.165
  8425.00    86.540
  8430.00    87.585
  8435.00    88.285
  8440.00    87.170
  8445.00    87.485
  8450.00    87.205
  8455.00    88.435
  8460.00    88.890
  8465.00    87.645
  8470.00    88.250
  8475.00    88.800
  8480.00    88.425
  8485.00    88.240
  8490.00    86.100
  8495.00    88.300
  8500.00    89.805
  8505.00    90.285
  8510.00    88.650
  8515.00    90.730
  8520.00    89.950
  8525.00    90.645
  8530.00    88.900
  8535.00    87.955
  8540.00    89.620
  8545.00    90.735
  8550.00    89.695
  8555.00    91.030
  8560.00    89.880
  8565.00    89.975
  8570.00    87.755
  8575.00    87.290
  8580.00    91.205
  8585.00    89.810
  8590.00    89.565
  8595.00    89.835
  8600.00    88.570
  8605.00    90.800
  8610.00    89.030
  8615.00    88.050
  8620.00    87.990
  8625.00    87.895
  8630.00    88.015
  8635.00    88.790
  8640.00    89.185
  8645.00    89.415
  8650.00    88.145
  8655.00    88.085
  8660.00    87.390
  8665.00    88.155
  8670.00    88.470
  8675.00    88.040
  8680.00    87.985
  8685.00    88.160
  8690.00    86.360
  8695.00    87.370
  8700.00    86.635
  8705.00    87.805
  8710.00    86.430
  8715.00    87.260
  8720.00    86.050
  8725.00    85.860
  8730.00    85.740
  8735.00    85.700
  8740.00    85.240
  8745.00    84.920
  8750.00    85.625
  8755.00    83.425
  8760.00    84.410
  8765.00    83.745
  8770.00    83.805
  8775.00    83.645
  8780.00    83.880
  8785.00    83.300
  8790.00    83.255
  8795.00    82.890
  8800.00    81.965
  8805.00    82.665
  8810.00    81.470
  8815.00    82.145
  8820.00    81.350
  8825.00    80.415
  8830.00    80.875
  8835.00    80.545
  8840.00    80.775
  8845.00    80.295
  8850.00    79.895
  8855.00    80.310
  8860.00    79.935
  8865.00    79.345
  8870.00    80.360
  8875.00    79.745
  8880.00    79.300
  8885.00    79.140
  8890.00    78.745
  8895.00    79.090
  8900.00    78.750
  8905.00    78.695
  8910.00    78.965
  8915.00    78.725
  8920.00    78.445
  8925.00    78.890
  8930.00    78.890
  8935.00    78.495
  8940.00    78.295
  8945.00    78.715
  8950.00    78.945
  8955.00    78.890
  8960.00    79.005
  8965.00    79.005
  8970.00    78.620
  8975.00    78.885
  8980.00    78.970
  8985.00    78.925
  8990.00    79.485
  8995.00    79.530
  9000.00    79.770
  9005.00    80.215
  9010.00    79.835
  9015.00    80.405
  9020.00    80.385
  9025.00    80.135
  9030.00    80.155
  9035.00    80.895
  9040.00    80.340
  9045.00    80.940
  9050.00    80.940
  9055.00    81.230
  9060.00    80.880
  9065.00    81.245
  9070.00    81.180
  9075.00    81.395
  9080.00    80.990
  9085.00    80.790
  9090.00    80.590
  9095.00    80.605
  9100.00    80.485
  9105.00    80.330
  9110.00    79.540
  9115.00    79.275
  9120.00    78.670
  9125.00    77.895
  9130.00    77.635
  9135.00    76.630
  9140.00    75.875
  9145.00    75.095
  9150.00    73.815
  9155.00    73.020
  9160.00    71.855
  9165.00    70.330
  9170.00    69.220
  9175.00    67.955
  9180.00    66.590
  9185.00    64.820
  9190.00    63.300
  9195.00    61.545
  9200.00    60.210
  9205.00    58.440
  9210.00    56.905
  9215.00    54.980
  9220.00    53.375
  9225.00    51.510
  9230.00    49.715
  9235.00    47.925
  9240.00    46.140
  9245.00    44.465
  9250.00    42.800
  9255.00    41.000
  9260.00    39.345
  9265.00    37.855
  9270.00    36.110
  9275.00    34.680
  9280.00    33.245
  9285.00    31.815
  9290.00    30.440
  9295.00    29.100
  9300.00    27.755
  9305.00    26.590
  9310.00    25.275
  9315.00    24.245
  9320.00    23.045
  9325.00    21.970
  9330.00    20.800
  9335.00    19.880
  9340.00    18.965
  9345.00    18.205
  9350.00    17.400
  9355.00    16.330
  9360.00    15.650
  9365.00    15.050
  9370.00    14.380
  9375.00    13.855
  9380.00    13.210
  9385.00    12.550
  9390.00    11.820
  9395.00    11.270
  9400.00    10.825
  9405.00    10.340
  9410.00     9.755
  9415.00     9.395
  9420.00     8.980
  9425.00     8.525
  9430.00     8.210
  9435.00     7.795
  9440.00     7.505
  9445.00     7.125
  9450.00     6.780
  9455.00     6.525
  9460.00     6.200
  9465.00     5.995
  9470.00     5.635
  9475.00     5.510
  9480.00     5.230
  9485.00     5.105
  9490.00     5.050
  9495.00     4.670
  9500.00     4.405
  9505.00     4.240
  9510.00     4.215
  9515.00     3.840
  9520.00     3.825
  9525.00     3.525
  9530.00     3.355
  9535.00     3.350
  9540.00     3.300
  9545.00     3.200
  9550.00     2.885
  9555.00     2.915
  9560.00     2.780
  9565.00     2.690
  9570.00     2.525
  9575.00     2.585
  9580.00     2.410
  9585.00     2.280
  9590.00     2.345
  9595.00     2.090
  9600.00     2.045
  9605.00     1.935
  9610.00     1.950
  9615.00     1.775
  9620.00     1.745
  9625.00     1.715
  9630.00     1.610
  9635.00     1.655
  9640.00     1.550
  9645.00     1.460
  9650.00     1.560
  9655.00     1.465
  9660.00     1.380
  9665.00     1.370
  9670.00     1.250
  9675.00     1.340
  9680.00     1.210
  9685.00     1.155
  9690.00     1.105
  9695.00     1.090
  9700.00     1.090
  9705.00     1.030
  9710.00     1.025
  9715.00     1.050
  9720.00     0.965
  9725.00     0.890
  9730.00     0.860
  9735.00     0.895
  9740.00     0.875
  9745.00     0.665
  9750.00     0.810
  9755.00     0.820
  9760.00     0.770
  9765.00     0.785
  9770.00     0.780
  9775.00     0.735
  9780.00     0.740
  9785.00     0.640
  9790.00     0.725
  9795.00     0.675
  9800.00     0.655
  9805.00     0.585
  9810.00     0.650
  9815.00     0.565
  9820.00     0.510
  9825.00     0.560
  9830.00     0.585
  9835.00     0.570
  9840.00     0.475
  9845.00     0.510
  9850.00     0.415
  9855.00     0.465
  9860.00     0.540
  9865.00     0.475
  9870.00     0.525
  9875.00     0.535
  9880.00     0.470
  9885.00     0.475
  9890.00     0.525
  9895.00     0.400
  9900.00     0.385
  9905.00     0.420
  9910.00     0.370
  9915.00     0.405
  9920.00     0.425
  9925.00     0.430
  9930.00     0.375
  9935.00     0.315
  9940.00     0.365
  9945.00     0.350
  9950.00     0.335
  9955.00     0.375
  9960.00     0.320
  9965.00     0.375
  9970.00     0.305
  9975.00     0.310
  9980.00     0.325
  9985.00     0.340
  9990.00     0.275
  9995.00     0.280
 10000.00     0.235

