#== Filter Data - Lambda 9 Spectrophotometer ==
#  Kitt Peak National Observatory - NOAO
#------------------------------------------------
#Filter: 0.1NM/7.5NMPERMIN/2S  660-677NM  W15REPLACEMENT 12NMSHIFT IN L9
#Date: 04/08/08   Time: 09:37:40  Operator: HS
#cwl=  6576.78A  fwhm=  60.38A  Tmax= 88.33% at  6567.00A
#Tcutoff=  2.00 %  Slitsize =  1 A
#fwhm spans 6666.59A to 6726.96A
#90%  spans 6673.76A to 6719.07A
#bw90 is  0.750; Tmin90/Tmax is  0.900
#No data smoothing
#
#Npts=  171     Disp=  1.00A/Interval
#*****
  6480.00    -0.005
  6481.00    -0.005
  6482.00    -0.005
  6483.00    -0.005
  6484.00    -0.005
  6485.00    -0.005
  6486.00    -0.005
  6487.00    -0.005
  6488.00     0.000
  6489.00     0.000
  6490.00     0.000
  6491.00     0.000
  6492.00     0.000
  6493.00     0.000
  6494.00     0.000
  6495.00     0.000
  6496.00     0.000
  6497.00     0.000
  6498.00     0.000
  6499.00     0.000
  6500.00     0.000
  6501.00     0.005
  6502.00     0.005
  6503.00     0.005
  6504.00     0.005
  6505.00     0.005
  6506.00     0.010
  6507.00     0.010
  6508.00     0.015
  6509.00     0.020
  6500.00     0.020
  6511.00     0.025
  6512.00     0.030
  6513.00     0.035
  6514.00     0.045
  6515.00     0.055
  6516.00     0.065
  6517.00     0.080
  6518.00     0.095
  6519.00     0.110
  6520.00     0.135
  6521.00     0.165
  6522.00     0.200
  6523.00     0.240
  6524.00     0.300
  6525.00     0.360
  6526.00     0.440
  6527.00     0.540
  6528.00     0.665
  6529.00     0.830
  6530.00     1.030
  6531.00     1.290
  6532.00     1.635
  6533.00     2.060
  6534.00     2.615
  6535.00     3.335
  6536.00     4.275
  6537.00     5.525
  6538.00     7.125
  6539.00     9.150
  6540.00    11.765
  6541.00    14.900
  6542.00    18.705
  6543.00    23.290
  6544.00    28.505
  6545.00    34.265
  6546.00    40.455
  6547.00    46.760
  6548.00    53.125
  6549.00    59.175
  6550.00    64.725
  6551.00    69.645
  6552.00    73.840
  6553.00    77.310
  6554.00    80.200
  6555.00    82.460
  6556.00    84.140
  6557.00    85.365
  6558.00    86.350
  6559.00    87.035
  6560.00    87.550
  6561.00    87.830
  6562.00    88.075
  6563.00    88.190
  6564.00    88.195
  6565.00    88.245
  6566.00    88.235
  6567.00    88.330
  6568.00    88.310
  6569.00    88.270
  6570.00    88.270
  6571.00    88.315
  6572.00    88.280
  6573.00    88.230
  6574.00    88.105
  6575.00    87.980
  6576.00    87.830
  6577.00    87.675
  6578.00    87.385
  6579.00    87.135
  6580.00    86.860
  6581.00    86.505
  6582.00    86.205
  6583.00    85.805
  6584.00    85.415
  6585.00    85.015
  6586.00    84.655
  6587.00    84.355
  6588.00    83.975
  6589.00    83.675
  6590.00    83.365
  6591.00    83.135
  6592.00    82.895
  6593.00    82.605
  6594.00    82.395
  6595.00    82.150
  6596.00    81.840
  6597.00    81.410
  6598.00    80.705
  6599.00    79.610
  6600.00    77.950
  6601.00    75.550
  6602.00    72.350
  6603.00    68.180
  6604.00    63.080
  6605.00    57.150
  6606.00    50.630
  6607.00    43.925
  6608.00    37.380
  6609.00    31.075
  6610.00    25.420
  6611.00    20.545
  6612.00    16.390
  6613.00    13.025
  6614.00    10.290
  6615.00     8.135
  6616.00     6.450
  6617.00     5.110
  6618.00     4.060
  6619.00     3.250
  6620.00     2.610
  6621.00     2.105
  6622.00     1.720
  6623.00     1.405
  6624.00     1.155
  6625.00     0.955
  6626.00     0.795
  6627.00     0.660
  6628.00     0.555
  6629.00     0.465
  6630.00     0.390
  6631.00     0.330
  6632.00     0.280
  6633.00     0.240
  6634.00     0.205
  6635.00     0.175
  6636.00     0.155
  6637.00     0.135
  6638.00     0.115
  6639.00     0.100
  6640.00     0.085
  6641.00     0.075
  6642.00     0.065
  6643.00     0.055
  6644.00     0.050
  6645.00     0.045
  6646.00     0.040
  6647.00     0.035
  6648.00     0.030
  6649.00     0.030
  6650.00     0.030

