#== Filter Data - Lambda 9 Spectrophotometer ==
#  Kitt Peak National Observatory - NOAO
#------------------------------------------------
#Filter: 0.1NM/7.5NMPERMIN/2S  662-685NM  W17REPLACEMENT 12NMSHIFT IN L9
#Date: 04/08/08   Time: 09:37:30  Operator: HS
#cwl=  6723.003.18A  fwhm=  62.81A  Tmax= 88.02% at  6721.00A
#Tcutoff=  2.00 %  Slitsize =  1 A
#fwhm spans 6811.78A to 6874.58A
#90%  spans 6818.26A to 6866.59A
#bw90 is  0.769; Tmin90/Tmax is  0.900
#No data smoothing
#
#Npts=  231     Disp=  1.00A/Interval
#*****
  6620.00    -0.005
  6621.00    -0.005
  6622.00    -0.005
  6623.00    -0.005
  6624.00    -0.005
  6625.00    -0.005
  6626.00    -0.005
  6627.00    -0.005
  6628.00    -0.005
  6629.00    -0.005
  6630.00    -0.005
  6631.00    -0.005
  6632.00    -0.005
  6633.00    -0.005
  6634.00    -0.005
  6635.00    -0.005
  6636.00    -0.005
  6637.00     0.000
  6638.00     0.000
  6639.00     0.000
  6640.00     0.000
  6641.00     0.000
  6642.00     0.000
  6643.00     0.000
  6644.00     0.000
  6645.00     0.005
  6646.00     0.005
  6647.00     0.005
  6648.00     0.005
  6649.00     0.005
  6650.00     0.010
  6651.00     0.010
  6652.00     0.015
  6653.00     0.015
  6654.00     0.020
  6655.00     0.025
  6656.00     0.025
  6657.00     0.030
  6658.00     0.040
  6659.00     0.045
  6660.00     0.055
  6661.00     0.065
  6662.00     0.075
  6663.00     0.090
  6664.00     0.110
  6665.00     0.130
  6666.00     0.160
  6667.00     0.190
  6788.00     0.225
  6669.00     0.270
  6670.00     0.325
  6671.00     0.400
  6672.00     0.485
  6673.00     0.600
  6674.00     0.740
  6675.00     0.920
  6676.00     1.150
  6677.00     1.440
  6678.00     1.815
  6679.00     2.300
  6680.00     2.930
  6681.00     3.740
  6682.00     4.795
  6683.00     6.150
  6684.00     7.925
  6685.00    10.190
  6686.00    13.065
  6687.00    16.685
  6688.00    21.075
  6689.00    26.230
  6690.00    32.160
  6691.00    38.655
  6692.00    45.540
  6693.00    52.480
  6694.00    59.100
  6695.00    65.230
  6696.00    70.555
  6697.00    74.950
  6698.00    78.515
  6699.00    81.170
  6700.00    83.145
  6701.00    84.610
  6702.00    85.475
  6703.00    86.095
  6704.00    86.520
  6705.00    86.740
  6706.00    86.885
  6707.00    86.955
  6708.00    87.040
  6709.00    87.090
  6710.00    87.170
  6711.00    87.175
  6712.00    87.230
  6713.00    87.295
  6714.00    87.415
  6715.00    87.530
  6716.00    87.665
  6717.00    87.765
  6718.00    87.865
  6719.00    87.935
  6720.00    87.960
  6721.00    88.015
  6722.00    88.000
  6723.00    87.970
  6724.00    87.910
  6725.00    87.830
  6726.00    87.730
  6727.00    87.530
  6728.00    87.370
  6729.00    87.185
  6730.00    86.930
  6731.00    86.680
  6732.00    86.500
  6733.00    86.280
  6734.00    85.970
  6735.00    85.735
  6736.00    85.550
  6737.00    85.255
  6738.00    85.035
  6739.00    84.790
  6740.00    84.520
  6741.00    84.145
  6742.00    83.830
  6743.00    83.315
  6744.00    82.615
  6745.00    81.645
  6746.00    80.300
  6747.00    78.445
  6748.00    76.040
  6749.00    72.940
  6750.00    69.085
  6751.00    64.520
  6752.00    59.290
  6753.00    53.570
  6754.00    47.520
  6755.00    41.510
  6756.00    35.665
  6757.00    30.255
  6758.00    25.330
  6759.00    20.925
  6760.00    17.155
  6761.00    13.980
  6762.00    11.295
  6763.00     9.130
  6764.00     7.390
  6765.00     5.960
  6766.00     4.840
  6767.00     3.940
  6768.00     3.210
  6769.00     2.645
  6770.00     2.175
  6771.00     1.790
  6772.00     1.495
  6773.00     1.245
  6774.00     1.040
  6775.00     0.875
  6776.00     0.735
  6777.00     0.620
  6778.00     0.525
  6779.00     0.450
  6780.00     0.385
  6781.00     0.330
  6782.00     0.280
  6783.00     0.235
  6784.00     0.210
  6785.00     0.185
  6786.00     0.160
  6787.00     0.135
  6788.00     0.120
  6789.00     0.105
  6790.00     0.090
  6791.00     0.080
  6792.00     0.070
  6793.00     0.060
  6794.00     0.055
  6795.00     0.045
  6796.00     0.040
  6797.00     0.035
  6798.00     0.030
  6799.00     0.025
  6800.00     0.025
  6801.00     0.020
  6802.00     0.020
  6803.00     0.015
  6804.00     0.015
  6805.00     0.015
  6806.00     0.010
  6807.00     0.010
  6808.00     0.010
  6809.00     0.010
  6810.00     0.005
  6811.00     0.005
  6812.00     0.005
  6813.00     0.005
  6814.00     0.005
  6815.00     0.000
  6816.00     0.000
  6817.00     0.000
  6818.00     0.000
  6819.00     0.000
  6820.00     0.000
  6821.00     0.000
  6822.00     0.000
  6823.00     0.000
  6824.00     0.000
  6825.00     0.000
  6826.00    -0.005
  6827.00     0.000
  6828.00     0.000
  6829.00     0.000
  6830.00    -0.005
  6831.00    -0.005
  6832.00    -0.005
  6833.00    -0.005
  6834.00     0.000
  6835.00    -0.005
  6836.00    -0.005
  6837.00    -0.005
  6838.00    -0.005
  6839.00    -0.005
  6840.00    -0.005
  6841.00    -0.005
  6842.00    -0.005
  6843.00    -0.005
  6844.00    -0.005
  6845.00    -0.005
  6846.00    -0.005
  6847.00    -0.005
  6848.00    -0.005
  6849.00    -0.005
  6850.00     0.000

